epoch,loss,acc,val_loss,val_acc
0,3.3750979900360107,0.5550000071525574,3.1185479164123535,0.5924999713897705
1,2.916318655014038,0.59375,3.1093740463256836,0.5768749713897705
2,2.9087820053100586,0.5893750190734863,2.8609817028045654,0.578125
3,2.701608657836914,0.6081249713897705,2.714102268218994,0.5600000023841858
4,2.473113775253296,0.5956249833106995,2.7007405757904053,0.5762500166893005
5,2.3758063316345215,0.5981249809265137,2.681051731109619,0.5687500238418579
6,2.8233296871185303,0.590624988079071,2.6262457370758057,0.5856249928474426
7,2.5643227100372314,0.5956249833106995,2.7378554344177246,0.5699999928474426
8,2.5090889930725098,0.6056249737739563,2.7334659099578857,0.5912500023841858
9,2.6576545238494873,0.59375,2.7309398651123047,0.5768749713897705
10,2.516916275024414,0.5824999809265137,2.799196481704712,0.5475000143051147
11,2.597689628601074,0.5950000286102295,2.492358684539795,0.5793750286102295
12,2.587024211883545,0.5943750143051147,2.68994140625,0.5662500262260437
13,2.3319528102874756,0.606249988079071,2.5366709232330322,0.5924999713897705
14,2.5194015502929688,0.5956249833106995,2.676473617553711,0.5737500190734863
15,2.5405988693237305,0.6018750071525574,2.6423544883728027,0.590624988079071
16,2.3818187713623047,0.6087499856948853,2.644582509994507,0.5787500143051147
17,2.51397967338562,0.5987499952316284,2.5107312202453613,0.5787500143051147
18,2.4839301109313965,0.621874988079071,2.587353229522705,0.5687500238418579
19,2.400832176208496,0.6137499809265137,2.605957269668579,0.5600000023841858
20,2.267716646194458,0.6193749904632568,2.6058509349823,0.578125
21,2.4191977977752686,0.606249988079071,2.583235263824463,0.5731250047683716
22,2.499605417251587,0.5931249856948853,2.6732921600341797,0.5756250023841858
23,2.3181400299072266,0.6006249785423279,2.704003095626831,0.5687500238418579
24,2.403409481048584,0.5887500047683716,2.8163504600524902,0.5731250047683716
25,2.4750282764434814,0.6100000143051147,2.523498058319092,0.6006249785423279
26,2.457044839859009,0.6237499713897705,2.7048985958099365,0.5793750286102295
27,2.4851768016815186,0.6018750071525574,2.534787893295288,0.5824999809265137
28,2.382272481918335,0.609375,2.7304160594940186,0.5737500190734863
29,2.507847309112549,0.6056249737739563,2.6813738346099854,0.574999988079071
30,2.439188241958618,0.5924999713897705,2.660616397857666,0.5724999904632568
31,2.6065216064453125,0.5899999737739563,2.646068811416626,0.5818750262260437
32,2.512399435043335,0.6018750071525574,2.6257240772247314,0.5699999928474426
33,2.579326868057251,0.5962499976158142,2.5754129886627197,0.5793750286102295
34,2.543761730194092,0.6025000214576721,2.575190782546997,0.5843750238418579
35,2.3670835494995117,0.6193749904632568,2.594700336456299,0.5893750190734863
36,2.3813636302948,0.6025000214576721,2.625528573989868,0.5837500095367432
37,2.514657497406006,0.5950000286102295,2.591020107269287,0.5849999785423279
38,2.447071075439453,0.59375,2.6906793117523193,0.5762500166893005
39,2.3799614906311035,0.6162499785423279,2.5196542739868164,0.5881249904632568
40,2.4274399280548096,0.5975000262260437,2.735356330871582,0.5793750286102295
41,2.546658754348755,0.5924999713897705,2.653287410736084,0.5843750238418579
42,2.4064273834228516,0.6156250238418579,2.5231471061706543,0.5837500095367432
43,2.5042641162872314,0.612500011920929,2.407078504562378,0.5881249904632568
44,2.4370839595794678,0.606249988079071,2.541807174682617,0.5793750286102295
45,2.443786144256592,0.6037499904632568,2.604560136795044,0.5849999785423279
46,2.5464553833007812,0.6012499928474426,2.5738980770111084,0.5843750238418579
47,2.4866743087768555,0.5893750190734863,2.4943103790283203,0.5837500095367432
48,2.263631820678711,0.6100000143051147,2.5807883739471436,0.5718749761581421
49,2.3822779655456543,0.6150000095367432,2.6092910766601562,0.574999988079071
50,2.384911298751831,0.6118749976158142,2.6511876583099365,0.5793750286102295
51,2.469470262527466,0.5950000286102295,2.658698081970215,0.5787500143051147
52,2.6160190105438232,0.609375,2.576564073562622,0.5793750286102295
53,2.5037736892700195,0.596875011920929,2.56855845451355,0.5843750238418579
54,2.4454147815704346,0.596875011920929,2.626829147338867,0.5806249976158142
55,2.419595241546631,0.6150000095367432,2.647252082824707,0.5743749737739563
56,2.449496269226074,0.5912500023841858,2.668365716934204,0.5893750190734863
57,2.5057871341705322,0.5943750143051147,2.777772903442383,0.5668749809265137
58,2.4139766693115234,0.6075000166893005,2.668050527572632,0.5868750214576721
59,2.744950294494629,0.5856249928474426,2.580225944519043,0.5950000286102295
60,2.3710243701934814,0.6081249713897705,2.717905044555664,0.5899999737739563
61,2.425135850906372,0.6006249785423279,2.6645641326904297,0.5706250071525574
62,2.545557737350464,0.6025000214576721,2.5900614261627197,0.5899999737739563
63,2.498351812362671,0.6137499809265137,2.6737303733825684,0.5806249976158142
64,2.5746800899505615,0.5862500071525574,2.5051381587982178,0.5881249904632568
65,2.570058822631836,0.5943750143051147,2.7152504920959473,0.5774999856948853
66,2.287881851196289,0.6187499761581421,2.5851142406463623,0.5756250023841858
67,2.536607265472412,0.5881249904632568,2.4999799728393555,0.5868750214576721
68,2.512442111968994,0.6081249713897705,2.6054892539978027,0.5849999785423279
69,2.6241135597229004,0.5931249856948853,2.4554829597473145,0.6000000238418579
70,2.3317017555236816,0.6156250238418579,2.713297128677368,0.5731250047683716
71,2.188113212585449,0.6181250214576721,2.611839532852173,0.5943750143051147
72,2.471468448638916,0.6274999976158142,2.5195765495300293,0.5981249809265137
73,2.6945080757141113,0.6031249761581421,2.5308518409729004,0.5924999713897705
74,2.356285572052002,0.6287500262260437,2.5285074710845947,0.6237499713897705
75,2.4415078163146973,0.609375,2.5436601638793945,0.5899999737739563
76,2.3895881175994873,0.6424999833106995,2.4356484413146973,0.625
77,2.390479803085327,0.6312500238418579,2.8574087619781494,0.5950000286102295
78,2.4473628997802734,0.6168749928474426,2.7021241188049316,0.6212499737739563
79,2.340318441390991,0.6318749785423279,2.399211883544922,0.6212499737739563
80,2.3099205493927,0.6337500214576721,2.4438557624816895,0.6087499856948853
81,2.4889745712280273,0.6293749809265137,2.5363762378692627,0.6362500190734863
82,2.391655921936035,0.6287500262260437,2.598162889480591,0.6112499833106995
83,2.321241855621338,0.6412500143051147,2.4270732402801514,0.6499999761581421
84,2.7303032875061035,0.6324999928474426,2.5502402782440186,0.6337500214576721
85,2.26517391204834,0.6606249809265137,2.5996932983398438,0.6162499785423279
86,2.523954153060913,0.6456249952316284,2.4598066806793213,0.6468750238418579
87,2.317049741744995,0.6668750047683716,2.4902777671813965,0.640625
88,2.442701578140259,0.643750011920929,2.4132893085479736,0.6575000286102295
89,2.4773802757263184,0.6393749713897705,2.5615527629852295,0.6424999833106995
90,2.363973617553711,0.6537500023841858,2.5270955562591553,0.6537500023841858
91,2.5146162509918213,0.6474999785423279,2.484903335571289,0.6337500214576721
92,2.3768677711486816,0.659375011920929,2.603214740753174,0.6237499713897705
93,2.5567848682403564,0.653124988079071,2.4292354583740234,0.6512500047683716
94,2.2869505882263184,0.6549999713897705,2.382239580154419,0.6431249976158142
95,2.4382500648498535,0.6743749976158142,2.401298999786377,0.6606249809265137
96,2.4456238746643066,0.659375011920929,2.6555144786834717,0.6200000047683716
97,2.3380637168884277,0.6493750214576721,2.4394783973693848,0.668749988079071
98,2.6330816745758057,0.6175000071525574,2.5556795597076416,0.6193749904632568
99,2.3453903198242188,0.6456249952316284,2.41945743560791,0.6543750166893005
100,2.1837799549102783,0.6793749928474426,2.3191187381744385,0.6731250286102295
101,2.3174808025360107,0.668749988079071,2.618736982345581,0.6499999761581421
102,2.2668988704681396,0.6581249833106995,2.462829351425171,0.6612499952316284
103,2.3258414268493652,0.6737499833106995,2.5026133060455322,0.6568750143051147
104,2.363579034805298,0.6643750071525574,2.4954545497894287,0.6549999713897705
105,2.424483060836792,0.6806250214576721,2.5875093936920166,0.6637499928474426
106,2.5491788387298584,0.6700000166893005,2.522937297821045,0.6518750190734863
107,2.424973964691162,0.671875,2.6157143115997314,0.6775000095367432
108,2.8079824447631836,0.6043750047683716,2.5846688747406006,0.5918750166893005
109,2.3433427810668945,0.6006249785423279,2.735532760620117,0.5762500166893005
110,2.527646541595459,0.6012499928474426,2.669888496398926,0.5756250023841858
111,2.60078763961792,0.5787500143051147,2.5365750789642334,0.5774999856948853
112,2.436607599258423,0.621874988079071,2.5485143661499023,0.5862500071525574
113,2.444044589996338,0.6000000238418579,2.6074318885803223,0.5818750262260437
114,2.4565560817718506,0.6075000166893005,2.703317880630493,0.5668749809265137
115,2.485854148864746,0.6056249737739563,2.705096483230591,0.5643749833106995
116,2.446450710296631,0.5956249833106995,2.6426498889923096,0.5837500095367432
117,2.488677740097046,0.5887500047683716,2.7047853469848633,0.5881249904632568
118,2.4303009510040283,0.6168749928474426,2.689910650253296,0.5706250071525574
119,2.52701997756958,0.6231250166893005,2.6986072063446045,0.5731250047683716
120,2.6383566856384277,0.5893750190734863,2.701826810836792,0.5793750286102295
121,2.4938416481018066,0.59375,2.5660016536712646,0.5849999785423279
122,2.525223970413208,0.5887500047683716,2.6652116775512695,0.5768749713897705
123,2.3068861961364746,0.6056249737739563,2.568269729614258,0.581250011920929
124,2.4960031509399414,0.5899999737739563,2.7283740043640137,0.5668749809265137
125,2.486046314239502,0.6031249761581421,2.5484137535095215,0.5950000286102295
126,2.5380420684814453,0.5699999928474426,2.5684967041015625,0.5799999833106995
127,2.5224769115448,0.5918750166893005,2.669867515563965,0.5687500238418579
128,2.34708309173584,0.6131250262260437,2.485901355743408,0.5799999833106995
129,2.38356876373291,0.5874999761581421,2.7020034790039062,0.5793750286102295
130,2.3692939281463623,0.5950000286102295,2.6682965755462646,0.5743749737739563
131,2.6726551055908203,0.6031249761581421,2.596510887145996,0.5837500095367432
132,2.492987632751465,0.5924999713897705,2.6210999488830566,0.5856249928474426
133,2.5510308742523193,0.6018750071525574,2.6080825328826904,0.5899999737739563
134,2.317805767059326,0.612500011920929,2.5466229915618896,0.5849999785423279
135,2.528282403945923,0.5950000286102295,2.6117258071899414,0.5843750238418579
136,2.4521565437316895,0.6081249713897705,2.5575804710388184,0.5618749856948853
137,2.343041181564331,0.6031249761581421,2.5827407836914062,0.5743749737739563
138,2.4162323474884033,0.5931249856948853,2.650810480117798,0.5693749785423279
139,2.4478940963745117,0.6112499833106995,2.4738378524780273,0.5856249928474426
140,2.5401792526245117,0.5899999737739563,2.6618783473968506,0.5793750286102295
141,2.3743393421173096,0.6106250286102295,2.606307029724121,0.5924999713897705
142,2.492306709289551,0.6018750071525574,2.5300307273864746,0.5924999713897705
143,2.540847063064575,0.5993750095367432,2.5998592376708984,0.5981249809265137
144,2.3349967002868652,0.6106250286102295,2.4939396381378174,0.590624988079071
145,2.596707820892334,0.5881249904632568,2.62129545211792,0.5824999809265137
146,2.2586498260498047,0.6000000238418579,2.7220609188079834,0.5943750143051147
147,2.480546712875366,0.6000000238418579,2.735388994216919,0.565625011920929
148,2.587526798248291,0.5975000262260437,2.5607831478118896,0.5724999904632568
149,2.509758949279785,0.6018750071525574,2.5558059215545654,0.5975000262260437
150,2.488485097885132,0.6137499809265137,2.5593693256378174,0.5918750166893005
151,2.451338768005371,0.6162499785423279,2.714711904525757,0.5831249952316284
152,2.7253611087799072,0.5893750190734863,2.5920827388763428,0.5849999785423279
153,2.378476619720459,0.5975000262260437,2.62312650680542,0.5893750190734863
154,2.4268643856048584,0.6075000166893005,2.6139779090881348,0.6006249785423279
155,2.476457118988037,0.6025000214576721,2.662951707839966,0.5756250023841858
156,2.3867385387420654,0.5962499976158142,2.6572980880737305,0.5824999809265137
157,2.635676860809326,0.590624988079071,2.584902286529541,0.574999988079071
158,2.5340797901153564,0.5943750143051147,2.605832576751709,0.5824999809265137
159,2.414132595062256,0.6112499833106995,2.6419332027435303,0.5762500166893005
160,2.362154245376587,0.6081249713897705,2.696089744567871,0.5724999904632568
161,2.5764682292938232,0.6193749904632568,2.579899311065674,0.5918750166893005
162,2.4703736305236816,0.6037499904632568,2.710134506225586,0.5600000023841858
163,2.387052297592163,0.6006249785423279,2.6175591945648193,0.5724999904632568
164,2.7448184490203857,0.5899999737739563,2.6567330360412598,0.5756250023841858
165,2.4244544506073,0.5950000286102295,2.49375057220459,0.5856249928474426
166,2.6128604412078857,0.5993750095367432,2.5408921241760254,0.5818750262260437
167,2.5917904376983643,0.5924999713897705,2.664790630340576,0.5774999856948853
168,2.336184501647949,0.6081249713897705,2.602293014526367,0.5843750238418579
169,2.4480674266815186,0.6075000166893005,2.6039929389953613,0.5737500190734863
170,2.374072790145874,0.6031249761581421,2.588113784790039,0.5793750286102295
171,2.403701066970825,0.6000000238418579,2.62160062789917,0.574999988079071
172,2.578974962234497,0.5818750262260437,2.4398763179779053,0.6268749833106995
173,2.5007147789001465,0.612500011920929,2.5446574687957764,0.6131250262260437
174,2.22969126701355,0.6543750166893005,2.711806535720825,0.6200000047683716
175,2.4476771354675293,0.6549999713897705,2.761969566345215,0.6150000095367432
176,2.392958641052246,0.6581249833106995,2.6187119483947754,0.6399999856948853
177,2.3971104621887207,0.6618750095367432,2.935598134994507,0.5931249856948853
178,2.273719549179077,0.6793749928474426,2.5476906299591064,0.6518750190734863
179,2.386768341064453,0.6556249856948853,2.670180082321167,0.6418750286102295
180,2.2693493366241455,0.6737499833106995,2.669064521789551,0.6393749713897705
181,2.312464714050293,0.671875,2.6056573390960693,0.6743749976158142
182,2.3730831146240234,0.6800000071525574,2.3349642753601074,0.6818749904632568
183,2.4350204467773438,0.6700000166893005,2.450274705886841,0.6656249761581421
184,2.380575180053711,0.6650000214576721,2.608804225921631,0.65625
185,2.3810935020446777,0.6656249761581421,2.6229636669158936,0.668749988079071
186,2.446453809738159,0.6631249785423279,2.463010311126709,0.6681249737739563
187,2.3875739574432373,0.6456249952316284,2.4921059608459473,0.6368749737739563
188,2.319911003112793,0.6518750190734863,2.548807382583618,0.6537500023841858
189,2.641720771789551,0.6506249904632568,2.539523124694824,0.6324999928474426
190,2.4021549224853516,0.6618750095367432,2.5743608474731445,0.6381250023841858
191,2.2343900203704834,0.6581249833106995,2.469012975692749,0.6631249785423279
192,2.1777184009552,0.6893749833106995,2.5811874866485596,0.65625
193,2.6594460010528564,0.6643750071525574,2.661527156829834,0.6668750047683716
194,2.3712611198425293,0.6899999976158142,2.5269827842712402,0.6850000023841858
195,2.3143911361694336,0.6825000047683716,2.6494851112365723,0.6549999713897705
196,2.4731943607330322,0.6949999928474426,2.4917168617248535,0.671875
197,2.5766689777374268,0.6725000143051147,2.8918747901916504,0.6006249785423279
198,2.3857970237731934,0.6850000023841858,2.611274480819702,0.6631249785423279
199,2.6819820404052734,0.6806250214576721,2.397709369659424,0.6731250286102295
200,2.450601816177368,0.6837499737739563,2.7994158267974854,0.643750011920929
201,2.2786645889282227,0.6868749856948853,2.560286521911621,0.6681249737739563
202,2.2515745162963867,0.7024999856948853,2.7045934200286865,0.65625
203,2.590610980987549,0.6331250071525574,2.6356189250946045,0.5868750214576721
204,2.3975160121917725,0.6143749952316284,2.500962972640991,0.5931249856948853
205,2.569981336593628,0.581250011920929,2.5276100635528564,0.5893750190734863
206,2.4132680892944336,0.6037499904632568,2.511120319366455,0.5843750238418579
207,2.637288808822632,0.6006249785423279,2.7766103744506836,0.5674999952316284
208,2.5191338062286377,0.6081249713897705,2.5656912326812744,0.5806249976158142
209,2.5069656372070312,0.5981249809265137,2.4268269538879395,0.5862500071525574
210,2.455052375793457,0.6131250262260437,2.605137586593628,0.5824999809265137
211,2.361344575881958,0.6187499761581421,2.649960517883301,0.5756250023841858
212,2.491664171218872,0.5931249856948853,2.6274993419647217,0.5962499976158142
213,2.340989589691162,0.606249988079071,2.592585802078247,0.6131250262260437
214,2.4681601524353027,0.6237499713897705,2.573235511779785,0.6100000143051147
215,2.2939581871032715,0.6449999809265137,2.659111738204956,0.628125011920929
216,2.4868645668029785,0.6418750286102295,2.8944365978240967,0.6212499737739563
217,2.4632558822631836,0.6443750262260437,2.5128183364868164,0.6556249856948853
218,2.4621851444244385,0.6343749761581421,2.6287152767181396,0.6356250047683716
219,2.275979995727539,0.659375011920929,2.6732146739959717,0.628125011920929
220,2.3972153663635254,0.6631249785423279,2.949115514755249,0.6312500238418579
221,2.4440736770629883,0.6568750143051147,2.7493081092834473,0.6462500095367432
222,2.6125500202178955,0.6443750262260437,2.662984609603882,0.6299999952316284
223,2.5020298957824707,0.6337500214576721,2.6003994941711426,0.6237499713897705
224,2.3086256980895996,0.6468750238418579,2.4658730030059814,0.6600000262260437
225,2.2580554485321045,0.6556249856948853,2.4936747550964355,0.65625
226,2.5818891525268555,0.6493750214576721,2.5280332565307617,0.6287500262260437
227,2.486868381500244,0.6518750190734863,2.3540232181549072,0.6587499976158142
228,2.4425783157348633,0.6575000286102295,2.694033145904541,0.643750011920929
229,2.5107192993164062,0.6549999713897705,2.6437418460845947,0.6549999713897705
230,2.517259120941162,0.6324999928474426,2.707719087600708,0.5887500047683716
231,2.4115712642669678,0.5962499976158142,2.512744426727295,0.6056249737739563
232,2.199044704437256,0.6225000023841858,2.659041166305542,0.6256250143051147
233,2.5715720653533936,0.6150000095367432,2.429896593093872,0.6487500071525574
234,2.3974339962005615,0.6431249976158142,2.6210291385650635,0.6362500190734863
235,2.3937463760375977,0.6556249856948853,2.45133376121521,0.6587499976158142
236,2.492746114730835,0.6399999856948853,2.349402666091919,0.6600000262260437
237,2.463003158569336,0.6518750190734863,2.475935935974121,0.6568750143051147
238,2.3635082244873047,0.6637499928474426,2.5849454402923584,0.6568750143051147
239,2.451695442199707,0.6806250214576721,2.7902472019195557,0.628125011920929
240,2.610625982284546,0.5956249833106995,2.6484124660491943,0.5831249952316284
241,2.391655206680298,0.59375,2.6347906589508057,0.550000011920929
242,2.477752447128296,0.5849999785423279,2.636077642440796,0.5831249952316284
243,2.5906219482421875,0.6000000238418579,2.536285638809204,0.5837500095367432
244,2.3467485904693604,0.628125011920929,2.4987144470214844,0.5799999833106995
245,2.4546899795532227,0.6150000095367432,2.492067337036133,0.6018750071525574
246,2.5664048194885254,0.6131250262260437,2.508017063140869,0.5862500071525574
247,2.1761233806610107,0.6368749737739563,2.2679574489593506,0.6268749833106995
248,2.4421792030334473,0.643750011920929,2.561814785003662,0.6412500143051147
249,2.0806920528411865,0.6625000238418579,2.562469244003296,0.6187499761581421
250,2.4252283573150635,0.6424999833106995,2.582226037979126,0.6474999785423279
251,2.550713062286377,0.659375011920929,2.5263681411743164,0.625
252,2.545428514480591,0.6474999785423279,2.4722418785095215,0.6168749928474426
253,2.571070671081543,0.6368749737739563,2.459545850753784,0.6299999952316284
254,2.296642303466797,0.6862499713897705,2.446974992752075,0.6568750143051147
255,2.5657708644866943,0.6381250023841858,2.457880973815918,0.6424999833106995
256,2.2968568801879883,0.671875,2.4550702571868896,0.643750011920929
257,2.2578959465026855,0.6524999737739563,2.391862154006958,0.6693750023841858
258,2.2556591033935547,0.6474999785423279,2.5284368991851807,0.6424999833106995
259,2.473824977874756,0.6418750286102295,2.555938243865967,0.6518750190734863
260,2.472799301147461,0.6631249785423279,2.664410352706909,0.6337500214576721
261,2.6172823905944824,0.6387500166893005,2.6346514225006104,0.6693750023841858
262,2.4109914302825928,0.6549999713897705,2.4448161125183105,0.6662499904632568
263,2.386263847351074,0.6781250238418579,2.5308704376220703,0.6693750023841858
264,2.3754589557647705,0.6731250286102295,2.5711898803710938,0.6650000214576721
265,2.512049436569214,0.6631249785423279,2.505730628967285,0.6700000166893005
266,2.3162918090820312,0.6793749928474426,2.438567876815796,0.6756250262260437
267,2.358889102935791,0.668749988079071,2.4817874431610107,0.6575000286102295
268,,0.6175000071525574,,0.09562499821186066
269,,0.0925000011920929,,0.10374999791383743
270,,0.07437500357627869,,0.09875000268220901
271,,0.08437500149011612,,0.09749999642372131
272,,0.08624999970197678,,0.08874999731779099
273,,0.08124999701976776,,0.09000000357627869
274,,0.09375,,0.10187499970197678
275,,0.09187500178813934,,0.09437499940395355
276,,0.0768750011920929,,0.09812500327825546
277,,0.08312500268220901,,0.10062500089406967
278,,0.09187500178813934,,0.10000000149011612
279,,0.08250000327825546,,0.09437499940395355
280,,0.07874999940395355,,0.10374999791383743
281,,0.07625000178813934,,0.09624999761581421
282,,0.08437500149011612,,0.09624999761581421
283,,0.08124999701976776,,0.09875000268220901
284,,0.07750000059604645,,0.09875000268220901
285,,0.08749999850988388,,0.09624999761581421
286,,0.078125,,0.09312500059604645
287,,0.08624999970197678,,0.09624999761581421
288,,0.08124999701976776,,0.09000000357627869
289,,0.08687499910593033,,0.09812500327825546
290,,0.09687499701976776,,0.09812500327825546
291,,0.08375000208616257,,0.09687499701976776
292,,0.08687499910593033,,0.09875000268220901
293,,0.09375,,0.08812499791383743
294,,0.07750000059604645,,0.0949999988079071
295,,0.08437500149011612,,0.10187499970197678
296,,0.09000000357627869,,0.08687499910593033
297,,0.08687499910593033,,0.09687499701976776
298,,0.07999999821186066,,0.10187499970197678
299,,0.078125,,0.09562499821186066
300,,0.08437500149011612,,0.08624999970197678
301,,0.09125000238418579,,0.09562499821186066
302,,0.09125000238418579,,0.10437499731779099
303,,0.08375000208616257,,0.09812500327825546
304,,0.09000000357627869,,0.10062500089406967
305,,0.08500000089406967,,0.09312500059604645
306,,0.07999999821186066,,0.09562499821186066
307,,0.07999999821186066,,0.09687499701976776
308,,0.08937499672174454,,0.08749999850988388
309,,0.07999999821186066,,0.0949999988079071
310,,0.08437500149011612,,0.09375
311,,0.07562500238418579,,0.09875000268220901
312,,0.07312499731779099,,0.09375
313,,0.07750000059604645,,0.09312500059604645
314,,0.0925000011920929,,0.08812499791383743
315,,0.08500000089406967,,0.09875000268220901
316,,0.08312500268220901,,0.10437499731779099
317,,0.08250000327825546,,0.09187500178813934
318,,0.10499999672174454,,0.10249999910593033
319,,0.08687499910593033,,0.09875000268220901
320,,0.07750000059604645,,0.09687499701976776
321,,0.08937499672174454,,0.09937500208616257
322,,0.07249999791383743,,0.09125000238418579
323,,0.08500000089406967,,0.09749999642372131
324,,0.08562500029802322,,0.09749999642372131
325,,0.08812499791383743,,0.10499999672174454
326,,0.06937500089406967,,0.10062500089406967
327,,0.09125000238418579,,0.09562499821186066
328,,0.08437500149011612,,0.08812499791383743
329,,0.0768750011920929,,0.10125000029802322
330,,0.08250000327825546,,0.09749999642372131
331,,0.08124999701976776,,0.08937499672174454
332,,0.078125,,0.09375
333,,0.08562500029802322,,0.09937500208616257
334,,0.08375000208616257,,0.09749999642372131
335,,0.08375000208616257,,0.1106249988079071
336,,0.08124999701976776,,0.09687499701976776
337,,0.07750000059604645,,0.09937500208616257
338,,0.0768750011920929,,0.08124999701976776
339,,0.0925000011920929,,0.10312499850988388
340,,0.0793749988079071,,0.09562499821186066
341,,0.08937499672174454,,0.09687499701976776
342,,0.08312500268220901,,0.09937500208616257
343,,0.07437500357627869,,0.10062500089406967
344,,0.08124999701976776,,0.09187500178813934
345,,0.08874999731779099,,0.09749999642372131
346,,0.09062500298023224,,0.09624999761581421
347,,0.08312500268220901,,0.08624999970197678
348,,0.0768750011920929,,0.0949999988079071
349,,0.09562499821186066,,0.09937500208616257
350,,0.08812499791383743,,0.09312500059604645
351,,0.08250000327825546,,0.09375
352,,0.09125000238418579,,0.08937499672174454
353,,0.09562499821186066,,0.0925000011920929
354,,0.08375000208616257,,0.0925000011920929
355,,0.08124999701976776,,0.09187500178813934
356,,0.08562500029802322,,0.0925000011920929
357,,0.08562500029802322,,0.09562499821186066
358,,0.0949999988079071,,0.09562499821186066
359,,0.08500000089406967,,0.10249999910593033
360,,0.07437500357627869,,0.10374999791383743
361,,0.08874999731779099,,0.09687499701976776
362,,0.08874999731779099,,0.09875000268220901
363,,0.09000000357627869,,0.09749999642372131
364,,0.08124999701976776,,0.09687499701976776
365,,0.08937499672174454,,0.10125000029802322
366,,0.08187499642372131,,0.10312499850988388
367,,0.07437500357627869,,0.08812499791383743
368,,0.07374999672174454,,0.10000000149011612
369,,0.09125000238418579,,0.09624999761581421
370,,0.08437500149011612,,0.09624999761581421
371,,0.07562500238418579,,0.09062500298023224
372,,0.09125000238418579,,0.10187499970197678
373,,0.08562500029802322,,0.09624999761581421
374,,0.08187499642372131,,0.09312500059604645
375,,0.09812500327825546,,0.09562499821186066
376,,0.08375000208616257,,0.09812500327825546
377,,0.08187499642372131,,0.09749999642372131
378,,0.08937499672174454,,0.09687499701976776
379,,0.08187499642372131,,0.09437499940395355
380,,0.09624999761581421,,0.0949999988079071
381,,0.08437500149011612,,0.10062500089406967
382,,0.08250000327825546,,0.10999999940395355
383,,0.08937499672174454,,0.09937500208616257
384,,0.07625000178813934,,0.09812500327825546
385,,0.08437500149011612,,0.09624999761581421
386,,0.08687499910593033,,0.09437499940395355
387,,0.0793749988079071,,0.10000000149011612
388,,0.06812500208616257,,0.10000000149011612
389,,0.0949999988079071,,0.08874999731779099
390,,0.08937499672174454,,0.09749999642372131
391,,0.08687499910593033,,0.10187499970197678
392,,0.08250000327825546,,0.09437499940395355
393,,0.07625000178813934,,0.09812500327825546
394,,0.07750000059604645,,0.09687499701976776
395,,0.08062499761581421,,0.0925000011920929
396,,0.08687499910593033,,0.09812500327825546
397,,0.08187499642372131,,0.10437499731779099
398,,0.09000000357627869,,0.09125000238418579
399,,0.08562500029802322,,0.09875000268220901
400,,0.07562500238418579,,0.08687499910593033
401,,0.09062500298023224,,0.08812499791383743
402,,0.08062499761581421,,0.09937500208616257
403,,0.09000000357627869,,0.10062500089406967
404,,0.07625000178813934,,0.0949999988079071
405,,0.09312500059604645,,0.09187500178813934
406,,0.08312500268220901,,0.09624999761581421
407,,0.08624999970197678,,0.10562500357627869
408,,0.08500000089406967,,0.09000000357627869
409,,0.08687499910593033,,0.09687499701976776
410,,0.09062500298023224,,0.08624999970197678
411,,0.07999999821186066,,0.10000000149011612
412,,0.08500000089406967,,0.10000000149011612
413,,0.08937499672174454,,0.08687499910593033
414,,0.09437499940395355,,0.0925000011920929
415,,0.08187499642372131,,0.09062500298023224
416,,0.08312500268220901,,0.10125000029802322
417,,0.1081250011920929,,0.10062500089406967
418,,0.0768750011920929,,0.09749999642372131
419,,0.08812499791383743,,0.10687500238418579
420,,0.08187499642372131,,0.09437499940395355
421,,0.07374999672174454,,0.10062500089406967
422,,0.08124999701976776,,0.09749999642372131
423,,0.09312500059604645,,0.09437499940395355
424,,0.07999999821186066,,0.10562500357627869
425,,0.078125,,0.09875000268220901
426,,0.08437500149011612,,0.10249999910593033
427,,0.09437499940395355,,0.09875000268220901
428,,0.0925000011920929,,0.09875000268220901
429,,0.078125,,0.09562499821186066
430,,0.07062499970197678,,0.08937499672174454
431,,0.08312500268220901,,0.09687499701976776
432,,0.09312500059604645,,0.09000000357627869
433,,0.08624999970197678,,0.09875000268220901
434,,0.07625000178813934,,0.08812499791383743
435,,0.08312500268220901,,0.09125000238418579
436,,0.07437500357627869,,0.0949999988079071
437,,0.09312500059604645,,0.09749999642372131
438,,0.07750000059604645,,0.09437499940395355
439,,0.08250000327825546,,0.09937500208616257
440,,0.09187500178813934,,0.09562499821186066
441,,0.09000000357627869,,0.10000000149011612
442,,0.08812499791383743,,0.10125000029802322
443,,0.08062499761581421,,0.09749999642372131
444,,0.078125,,0.08500000089406967
445,,0.0793749988079071,,0.09624999761581421
446,,0.078125,,0.09000000357627869
447,,0.07625000178813934,,0.09125000238418579
448,,0.08562500029802322,,0.09875000268220901
449,,0.08375000208616257,,0.08874999731779099
450,,0.08562500029802322,,0.08500000089406967
451,,0.08687499910593033,,0.0949999988079071
452,,0.078125,,0.09312500059604645
453,,0.08124999701976776,,0.09562499821186066
454,,0.08937499672174454,,0.08749999850988388
455,,0.07999999821186066,,0.09375
456,,0.08562500029802322,,0.09125000238418579
457,,0.09375,,0.10000000149011612
458,,0.08500000089406967,,0.09749999642372131
459,,0.08937499672174454,,0.08749999850988388
460,,0.07625000178813934,,0.09562499821186066
461,,0.08687499910593033,,0.10187499970197678
462,,0.07874999940395355,,0.10000000149011612
463,,0.08187499642372131,,0.09187500178813934
464,,0.08749999850988388,,0.11249999701976776
465,,0.08687499910593033,,0.09687499701976776
466,,0.08312500268220901,,0.08937499672174454
467,,0.08437500149011612,,0.10000000149011612
468,,0.08250000327825546,,0.09312500059604645
469,,0.09000000357627869,,0.08874999731779099
470,,0.06812500208616257,,0.09624999761581421
471,,0.08500000089406967,,0.09062500298023224
472,,0.09062500298023224,,0.09687499701976776
473,,0.08250000327825546,,0.0925000011920929
474,,0.08375000208616257,,0.09562499821186066
475,,0.08500000089406967,,0.10249999910593033
476,,0.08812499791383743,,0.09312500059604645
477,,0.078125,,0.09937500208616257
478,,0.07999999821186066,,0.09562499821186066
479,,0.08187499642372131,,0.09937500208616257
480,,0.09000000357627869,,0.09062500298023224
481,,0.08624999970197678,,0.09562499821186066
482,,0.08250000327825546,,0.09437499940395355
483,,0.07500000298023224,,0.09312500059604645
484,,0.0768750011920929,,0.0925000011920929
485,,0.08749999850988388,,0.09875000268220901
486,,0.08437500149011612,,0.09062500298023224
487,,0.08062499761581421,,0.09687499701976776
488,,0.08937499672174454,,0.09812500327825546
489,,0.09437499940395355,,0.09624999761581421
490,,0.08687499910593033,,0.09749999642372131
491,,0.07750000059604645,,0.09312500059604645
492,,0.08062499761581421,,0.09312500059604645
493,,0.08812499791383743,,0.09812500327825546
494,,0.08562500029802322,,0.10125000029802322
495,,0.07437500357627869,,0.09875000268220901
496,,0.09187500178813934,,0.10125000029802322
497,,0.08624999970197678,,0.09562499821186066
498,,0.08250000327825546,,0.0949999988079071
499,,0.08562500029802322,,0.09437499940395355
500,,0.08187499642372131,,0.09312500059604645
501,,0.08500000089406967,,0.09312500059604645
502,,0.08812499791383743,,0.08937499672174454
503,,0.09437499940395355,,0.10000000149011612
504,,0.08124999701976776,,0.09000000357627869
505,,0.0768750011920929,,0.09937500208616257
506,,0.09312500059604645,,0.09937500208616257
507,,0.07874999940395355,,0.0925000011920929
508,,0.08187499642372131,,0.08937499672174454
509,,0.07874999940395355,,0.09312500059604645
510,,0.08062499761581421,,0.0949999988079071
511,,0.08375000208616257,,0.10125000029802322
512,,0.07874999940395355,,0.09624999761581421
513,,0.08687499910593033,,0.09437499940395355
514,,0.08687499910593033,,0.08812499791383743
515,,0.08375000208616257,,0.09937500208616257
516,,0.08624999970197678,,0.10249999910593033
517,,0.07562500238418579,,0.09000000357627869
518,,0.08500000089406967,,0.09125000238418579
519,,0.08562500029802322,,0.10750000178813934
520,,0.08812499791383743,,0.10125000029802322
521,,0.06499999761581421,,0.09062500298023224
522,,0.08562500029802322,,0.09562499821186066
523,,0.08437500149011612,,0.09000000357627869
524,,0.08312500268220901,,0.09562499821186066
525,,0.0793749988079071,,0.10062500089406967
526,,0.08624999970197678,,0.09312500059604645
527,,0.08874999731779099,,0.0949999988079071
528,,0.08437500149011612,,0.09437499940395355
529,,0.08312500268220901,,0.09687499701976776
530,,0.08375000208616257,,0.10000000149011612
531,,0.07562500238418579,,0.09562499821186066
532,,0.08562500029802322,,0.09749999642372131
533,,0.07874999940395355,,0.0949999988079071
534,,0.08874999731779099,,0.09875000268220901
535,,0.0793749988079071,,0.10437499731779099
536,,0.08624999970197678,,0.0925000011920929
537,,0.08937499672174454,,0.09187500178813934
538,,0.09000000357627869,,0.10062500089406967
539,,0.09437499940395355,,0.09749999642372131
540,,0.08874999731779099,,0.0949999988079071
541,,0.08562500029802322,,0.09749999642372131
542,,0.08187499642372131,,0.0949999988079071
543,,0.08749999850988388,,0.09562499821186066
544,,0.08812499791383743,,0.09562499821186066
545,,0.08500000089406967,,0.09624999761581421
546,,0.07999999821186066,,0.10312499850988388
547,,0.07500000298023224,,0.10187499970197678
548,,0.08500000089406967,,0.10062500089406967
549,,0.08812499791383743,,0.09437499940395355
550,,0.08937499672174454,,0.09125000238418579
551,,0.09125000238418579,,0.09937500208616257
552,,0.0949999988079071,,0.0925000011920929
553,,0.09062500298023224,,0.09437499940395355
554,,0.08500000089406967,,0.09562499821186066
555,,0.08187499642372131,,0.09624999761581421
556,,0.07562500238418579,,0.08812499791383743
557,,0.09312500059604645,,0.09687499701976776
558,,0.078125,,0.10312499850988388
559,,0.07999999821186066,,0.09187500178813934
560,,0.07249999791383743,,0.09812500327825546
561,,0.07625000178813934,,0.0925000011920929
562,,0.07437500357627869,,0.10125000029802322
563,,0.09562499821186066,,0.09937500208616257
564,,0.10374999791383743,,0.09812500327825546
565,,0.0793749988079071,,0.09562499821186066
566,,0.09437499940395355,,0.0949999988079071
567,,0.08624999970197678,,0.09749999642372131
568,,0.09062500298023224,,0.10062500089406967
569,,0.08187499642372131,,0.10999999940395355
570,,0.08375000208616257,,0.09437499940395355
571,,0.08687499910593033,,0.09812500327825546
572,,0.08687499910593033,,0.09749999642372131
573,,0.08812499791383743,,0.09375
574,,0.09000000357627869,,0.09749999642372131
575,,0.08124999701976776,,0.09437499940395355
576,,0.078125,,0.09687499701976776
577,,0.08937499672174454,,0.09875000268220901
578,,0.08187499642372131,,0.09749999642372131
579,,0.09125000238418579,,0.08749999850988388
580,,0.08437500149011612,,0.0949999988079071
581,,0.08312500268220901,,0.0949999988079071
582,,0.08250000327825546,,0.09437499940395355
583,,0.08749999850988388,,0.09562499821186066
584,,0.08062499761581421,,0.09125000238418579
585,,0.0793749988079071,,0.09687499701976776
586,,0.09312500059604645,,0.10374999791383743
587,,0.08937499672174454,,0.09437499940395355
588,,0.08562500029802322,,0.09312500059604645
589,,0.08749999850988388,,0.10249999910593033
590,,0.07874999940395355,,0.09125000238418579
591,,0.08375000208616257,,0.10062500089406967
592,,0.07750000059604645,,0.09437499940395355
593,,0.08187499642372131,,0.09624999761581421
594,,0.09187500178813934,,0.10875000059604645
595,,0.07750000059604645,,0.08687499910593033
596,,0.08500000089406967,,0.10125000029802322
597,,0.08624999970197678,,0.09062500298023224
598,,0.08250000327825546,,0.08937499672174454
599,,0.08250000327825546,,0.09125000238418579
600,,0.08624999970197678,,0.09812500327825546
601,,0.07187499850988388,,0.10062500089406967
602,,0.08874999731779099,,0.10187499970197678
603,,0.06624999642372131,,0.10312499850988388
604,,0.08749999850988388,,0.09562499821186066
605,,0.09062500298023224,,0.09687499701976776
606,,0.08437500149011612,,0.09437499940395355
607,,0.07999999821186066,,0.0949999988079071
608,,0.08375000208616257,,0.10437499731779099
609,,0.10000000149011612,,0.09562499821186066
610,,0.0793749988079071,,0.0925000011920929
611,,0.08624999970197678,,0.10062500089406967
612,,0.0925000011920929,,0.10249999910593033
613,,0.08250000327825546,,0.09312500059604645
614,,0.08562500029802322,,0.10625000298023224
615,,0.078125,,0.09749999642372131
616,,0.07249999791383743,,0.09749999642372131
617,,0.08250000327825546,,0.09562499821186066
618,,0.08562500029802322,,0.09562499821186066
619,,0.08250000327825546,,0.09312500059604645
620,,0.07999999821186066,,0.09437499940395355
621,,0.07625000178813934,,0.09937500208616257
622,,0.08437500149011612,,0.0949999988079071
623,,0.08124999701976776,,0.09437499940395355
624,,0.07874999940395355,,0.09375
625,,0.08062499761581421,,0.09187500178813934
626,,0.08312500268220901,,0.09624999761581421
627,,0.09624999761581421,,0.0949999988079071
628,,0.09312500059604645,,0.08375000208616257
629,,0.08812499791383743,,0.09937500208616257
630,,0.08124999701976776,,0.09749999642372131
631,,0.08312500268220901,,0.10374999791383743
632,,0.08749999850988388,,0.09749999642372131
633,,0.09187500178813934,,0.09062500298023224
634,,0.07874999940395355,,0.09687499701976776
635,,0.08500000089406967,,0.09312500059604645
636,,0.08437500149011612,,0.10062500089406967
637,,0.09187500178813934,,0.09687499701976776
638,,0.08749999850988388,,0.10000000149011612
639,,0.08687499910593033,,0.09187500178813934
640,,0.08375000208616257,,0.09437499940395355
641,,0.09125000238418579,,0.10312499850988388
642,,0.08687499910593033,,0.09812500327825546
643,,0.09312500059604645,,0.09875000268220901
644,,0.09125000238418579,,0.09437499940395355
645,,0.08687499910593033,,0.09624999761581421
646,,0.07124999910593033,,0.09375
647,,0.09125000238418579,,0.09812500327825546
648,,0.09312500059604645,,0.09749999642372131
649,,0.08312500268220901,,0.09437499940395355
650,,0.0793749988079071,,0.09937500208616257
651,,0.08312500268220901,,0.08749999850988388
652,,0.08312500268220901,,0.08687499910593033
653,,0.09187500178813934,,0.10437499731779099
654,,0.07625000178813934,,0.09562499821186066
655,,0.08375000208616257,,0.09749999642372131
656,,0.07750000059604645,,0.0949999988079071
657,,0.08312500268220901,,0.09875000268220901
658,,0.08375000208616257,,0.09937500208616257
659,,0.0925000011920929,,0.09062500298023224
660,,0.08874999731779099,,0.08749999850988388
661,,0.08250000327825546,,0.09187500178813934
662,,0.08749999850988388,,0.10312499850988388
663,,0.0768750011920929,,0.09437499940395355
664,,0.08124999701976776,,0.09437499940395355
665,,0.07562500238418579,,0.09312500059604645
666,,0.08312500268220901,,0.0768750011920929
667,,0.08187499642372131,,0.09062500298023224
668,,0.09749999642372131,,0.10125000029802322
669,,0.08312500268220901,,0.0949999988079071
670,,0.08250000327825546,,0.09937500208616257
671,,0.09187500178813934,,0.09062500298023224
672,,0.0793749988079071,,0.08812499791383743
673,,0.0768750011920929,,0.09062500298023224
674,,0.09000000357627869,,0.09812500327825546
675,,0.08187499642372131,,0.09937500208616257
676,,0.08187499642372131,,0.09437499940395355
677,,0.08187499642372131,,0.09187500178813934
678,,0.08874999731779099,,0.10062500089406967
679,,0.10000000149011612,,0.09375
680,,0.09749999642372131,,0.09562499821186066
681,,0.08874999731779099,,0.09749999642372131
682,,0.07625000178813934,,0.09812500327825546
683,,0.09125000238418579,,0.08062499761581421
684,,0.09187500178813934,,0.0949999988079071
685,,0.08749999850988388,,0.08812499791383743
686,,0.08687499910593033,,0.10625000298023224
687,,0.09187500178813934,,0.09562499821186066
688,,0.08062499761581421,,0.10062500089406967
689,,0.09125000238418579,,0.09875000268220901
690,,0.0925000011920929,,0.0949999988079071
691,,0.08375000208616257,,0.1081250011920929
692,,0.09375,,0.0949999988079071
693,,0.09562499821186066,,0.09624999761581421
694,,0.08874999731779099,,0.09749999642372131
695,,0.07750000059604645,,0.08937499672174454
696,,0.08187499642372131,,0.09312500059604645
697,,0.08062499761581421,,0.09749999642372131
698,,0.09000000357627869,,0.10125000029802322
699,,0.08250000327825546,,0.09062500298023224
700,,0.09187500178813934,,0.10374999791383743
701,,0.08062499761581421,,0.09937500208616257
702,,0.08124999701976776,,0.09687499701976776
703,,0.08312500268220901,,0.09125000238418579
704,,0.07625000178813934,,0.09875000268220901
705,,0.08437500149011612,,0.09187500178813934
706,,0.08687499910593033,,0.10249999910593033
707,,0.09375,,0.09812500327825546
708,,0.09125000238418579,,0.09562499821186066
709,,0.09125000238418579,,0.09624999761581421
710,,0.08187499642372131,,0.0949999988079071
711,,0.08375000208616257,,0.08500000089406967
712,,0.09875000268220901,,0.09624999761581421
713,,0.07999999821186066,,0.09312500059604645
714,,0.08312500268220901,,0.0925000011920929
715,,0.08375000208616257,,0.0925000011920929
716,,0.08250000327825546,,0.09624999761581421
717,,0.08062499761581421,,0.10875000059604645
718,,0.08250000327825546,,0.10625000298023224
719,,0.08687499910593033,,0.10187499970197678
720,,0.09375,,0.09624999761581421
721,,0.08562500029802322,,0.09562499821186066
722,,0.07562500238418579,,0.0949999988079071
723,,0.08812499791383743,,0.09749999642372131
724,,0.08187499642372131,,0.09125000238418579
725,,0.0949999988079071,,0.08749999850988388
726,,0.09125000238418579,,0.09562499821186066
727,,0.09437499940395355,,0.0949999988079071
728,,0.08250000327825546,,0.0949999988079071
729,,0.08187499642372131,,0.09437499940395355
730,,0.10187499970197678,,0.08562500029802322
731,,0.08874999731779099,,0.10187499970197678
732,,0.09000000357627869,,0.10062500089406967
733,,0.08562500029802322,,0.09937500208616257
734,,0.08874999731779099,,0.09624999761581421
735,,0.07562500238418579,,0.08624999970197678
736,,0.08500000089406967,,0.0949999988079071
737,,0.08250000327825546,,0.10062500089406967
738,,0.08749999850988388,,0.09437499940395355
739,,0.08250000327825546,,0.09937500208616257
740,,0.08687499910593033,,0.09687499701976776
741,,0.09187500178813934,,0.08624999970197678
742,,0.08562500029802322,,0.09062500298023224
743,,0.08937499672174454,,0.10750000178813934
744,,0.07562500238418579,,0.10249999910593033
745,,0.09062500298023224,,0.09125000238418579
746,,0.09062500298023224,,0.09937500208616257
747,,0.08500000089406967,,0.09437499940395355
748,,0.08937499672174454,,0.09562499821186066
749,,0.08874999731779099,,0.09562499821186066
750,,0.09375,,0.10249999910593033
751,,0.08624999970197678,,0.09749999642372131
752,,0.09812500327825546,,0.09312500059604645
753,,0.09437499940395355,,0.09062500298023224
754,,0.08250000327825546,,0.08687499910593033
755,,0.07750000059604645,,0.09187500178813934
756,,0.09187500178813934,,0.09437499940395355
757,,0.09687499701976776,,0.09875000268220901
758,,0.08250000327825546,,0.09062500298023224
759,,0.09562499821186066,,0.09937500208616257
760,,0.09437499940395355,,0.10000000149011612
761,,0.08312500268220901,,0.08624999970197678
762,,0.09437499940395355,,0.10625000298023224
763,,0.09562499821186066,,0.10062500089406967
764,,0.07437500357627869,,0.10062500089406967
765,,0.08124999701976776,,0.08874999731779099
766,,0.0949999988079071,,0.09312500059604645
767,,0.08812499791383743,,0.09375
768,,0.06750000268220901,,0.09562499821186066
769,,0.07999999821186066,,0.09437499940395355
770,,0.08124999701976776,,0.09937500208616257
771,,0.08437500149011612,,0.10000000149011612
772,,0.07437500357627869,,0.09312500059604645
773,,0.08687499910593033,,0.10062500089406967
774,,0.08687499910593033,,0.10000000149011612
775,,0.07999999821186066,,0.09562499821186066
776,,0.09125000238418579,,0.08250000327825546
777,,0.08624999970197678,,0.08687499910593033
778,,0.08812499791383743,,0.0925000011920929
779,,0.08500000089406967,,0.10125000029802322
780,,0.08937499672174454,,0.09687499701976776
781,,0.08624999970197678,,0.09562499821186066
782,,0.0949999988079071,,0.08937499672174454
783,,0.07437500357627869,,0.10062500089406967
784,,0.08812499791383743,,0.08874999731779099
785,,0.06875000149011612,,0.09875000268220901
786,,0.08437500149011612,,0.10374999791383743
787,,0.08124999701976776,,0.10062500089406967
788,,0.08187499642372131,,0.09749999642372131
789,,0.09125000238418579,,0.09312500059604645
790,,0.08687499910593033,,0.10187499970197678
791,,0.09312500059604645,,0.09562499821186066
792,,0.08312500268220901,,0.09125000238418579
793,,0.08437500149011612,,0.09624999761581421
794,,0.08375000208616257,,0.09937500208616257
795,,0.08312500268220901,,0.0925000011920929
796,,0.09312500059604645,,0.09875000268220901
797,,0.08500000089406967,,0.09437499940395355
798,,0.08250000327825546,,0.08937499672174454
799,,0.07374999672174454,,0.09125000238418579
800,,0.06812500208616257,,0.0949999988079071
801,,0.08687499910593033,,0.10062500089406967
802,,0.08187499642372131,,0.10374999791383743
803,,0.08312500268220901,,0.0949999988079071
804,,0.08312500268220901,,0.09125000238418579
805,,0.08874999731779099,,0.09312500059604645
806,,0.0768750011920929,,0.09875000268220901
807,,0.08250000327825546,,0.10750000178813934
808,,0.08062499761581421,,0.09875000268220901
809,,0.07874999940395355,,0.10249999910593033
810,,0.09125000238418579,,0.09562499821186066
811,,0.08124999701976776,,0.09624999761581421
812,,0.08749999850988388,,0.09000000357627869
813,,0.08749999850988388,,0.09875000268220901
814,,0.08124999701976776,,0.08812499791383743
815,,0.08124999701976776,,0.09437499940395355
816,,0.09375,,0.09687499701976776
817,,0.08937499672174454,,0.09562499821186066
818,,0.07999999821186066,,0.09000000357627869
819,,0.08250000327825546,,0.10062500089406967
820,,0.08624999970197678,,0.10062500089406967
821,,0.08500000089406967,,0.0925000011920929
822,,0.08375000208616257,,0.09812500327825546
823,,0.08624999970197678,,0.10125000029802322
824,,0.08250000327825546,,0.11187499761581421
825,,0.08874999731779099,,0.10249999910593033
826,,0.07999999821186066,,0.10125000029802322
827,,0.09125000238418579,,0.09937500208616257
828,,0.07874999940395355,,0.10187499970197678
829,,0.09312500059604645,,0.09687499701976776
830,,0.07874999940395355,,0.09749999642372131
831,,0.09437499940395355,,0.09312500059604645
832,,0.08312500268220901,,0.10062500089406967
833,,0.0793749988079071,,0.09562499821186066
834,,0.078125,,0.09937500208616257
835,,0.09375,,0.09624999761581421
836,,0.08812499791383743,,0.08749999850988388
837,,0.08624999970197678,,0.09624999761581421
838,,0.08250000327825546,,0.10125000029802322
839,,0.09312500059604645,,0.09749999642372131
840,,0.08874999731779099,,0.09375
841,,0.0925000011920929,,0.09812500327825546
842,,0.08749999850988388,,0.09687499701976776
843,,0.09000000357627869,,0.10062500089406967
844,,0.08062499761581421,,0.0925000011920929
845,,0.08687499910593033,,0.09875000268220901
846,,0.09375,,0.10187499970197678
847,,0.09624999761581421,,0.08562500029802322
848,,0.09624999761581421,,0.09375
849,,0.07374999672174454,,0.10062500089406967
850,,0.09125000238418579,,0.09687499701976776
851,,0.09000000357627869,,0.09312500059604645
852,,0.07999999821186066,,0.10187499970197678
853,,0.08500000089406967,,0.09937500208616257
854,,0.07562500238418579,,0.09624999761581421
855,,0.07500000298023224,,0.09000000357627869
856,,0.09125000238418579,,0.09562499821186066
857,,0.07999999821186066,,0.10187499970197678
858,,0.08749999850988388,,0.09875000268220901
859,,0.07999999821186066,,0.09875000268220901
860,,0.09562499821186066,,0.10062500089406967
861,,0.08687499910593033,,0.09437499940395355
862,,0.08812499791383743,,0.09375
863,,0.0925000011920929,,0.0925000011920929
864,,0.0768750011920929,,0.10625000298023224
865,,0.08500000089406967,,0.09687499701976776
866,,0.08375000208616257,,0.10125000029802322
867,,0.08874999731779099,,0.10000000149011612
868,,0.09000000357627869,,0.08749999850988388
869,,0.08437500149011612,,0.09937500208616257
870,,0.08562500029802322,,0.0949999988079071
871,,0.08500000089406967,,0.09875000268220901
872,,0.07999999821186066,,0.08187499642372131
873,,0.08124999701976776,,0.09375
874,,0.08624999970197678,,0.0949999988079071
875,,0.09375,,0.09687499701976776
876,,0.08312500268220901,,0.0949999988079071
877,,0.08062499761581421,,0.09624999761581421
878,,0.07625000178813934,,0.09125000238418579
879,,0.08375000208616257,,0.09937500208616257
880,,0.08874999731779099,,0.08687499910593033
881,,0.07249999791383743,,0.08874999731779099
882,,0.08250000327825546,,0.09375
883,,0.08874999731779099,,0.08624999970197678
884,,0.09875000268220901,,0.09749999642372131
885,,0.07999999821186066,,0.08749999850988388
886,,0.08874999731779099,,0.09562499821186066
887,,0.078125,,0.09937500208616257
888,,0.08562500029802322,,0.09375
889,,0.08937499672174454,,0.09812500327825546
890,,0.07625000178813934,,0.10000000149011612
891,,0.08687499910593033,,0.10125000029802322
892,,0.08312500268220901,,0.10499999672174454
893,,0.08687499910593033,,0.10312499850988388
894,,0.08250000327825546,,0.09437499940395355
895,,0.09125000238418579,,0.09437499940395355
896,,0.08437500149011612,,0.08500000089406967
897,,0.08749999850988388,,0.0925000011920929
898,,0.08250000327825546,,0.09562499821186066
899,,0.08124999701976776,,0.09937500208616257
900,,0.08312500268220901,,0.10000000149011612
901,,0.08937499672174454,,0.09062500298023224
902,,0.08187499642372131,,0.09875000268220901
903,,0.07874999940395355,,0.09749999642372131
904,,0.09062500298023224,,0.09624999761581421
905,,0.08937499672174454,,0.09062500298023224
906,,0.0793749988079071,,0.09437499940395355
907,,0.09000000357627869,,0.09375
908,,0.08500000089406967,,0.10687500238418579
909,,0.08187499642372131,,0.10125000029802322
910,,0.08624999970197678,,0.10062500089406967
911,,0.09562499821186066,,0.09062500298023224
912,,0.08437500149011612,,0.09187500178813934
913,,0.0768750011920929,,0.10000000149011612
914,,0.08312500268220901,,0.09562499821186066
915,,0.08812499791383743,,0.09749999642372131
916,,0.07999999821186066,,0.10249999910593033
917,,0.08250000327825546,,0.09312500059604645
918,,0.08874999731779099,,0.10062500089406967
919,,0.09187500178813934,,0.09125000238418579
920,,0.07500000298023224,,0.10125000029802322
921,,0.08312500268220901,,0.08812499791383743
922,,0.08937499672174454,,0.09375
923,,0.08375000208616257,,0.0949999988079071
924,,0.07874999940395355,,0.09375
925,,0.08687499910593033,,0.10499999672174454
926,,0.08375000208616257,,0.08624999970197678
927,,0.08187499642372131,,0.10625000298023224
928,,0.08749999850988388,,0.08937499672174454
929,,0.08312500268220901,,0.08937499672174454
930,,0.07999999821186066,,0.09312500059604645
931,,0.08500000089406967,,0.09687499701976776
932,,0.08749999850988388,,0.09375
933,,0.08187499642372131,,0.09312500059604645
934,,0.08812499791383743,,0.10437499731779099
935,,0.08874999731779099,,0.09937500208616257
936,,0.08062499761581421,,0.09687499701976776
937,,0.08812499791383743,,0.09375
938,,0.08375000208616257,,0.10125000029802322
939,,0.09062500298023224,,0.09437499940395355
940,,0.08749999850988388,,0.09375
941,,0.07874999940395355,,0.09375
942,,0.08375000208616257,,0.0925000011920929
943,,0.09000000357627869,,0.08874999731779099
944,,0.08124999701976776,,0.09437499940395355
945,,0.08687499910593033,,0.09562499821186066
946,,0.08187499642372131,,0.09375
947,,0.08749999850988388,,0.10312499850988388
948,,0.09187500178813934,,0.09937500208616257
949,,0.08687499910593033,,0.09312500059604645
950,,0.08500000089406967,,0.09687499701976776
951,,0.09125000238418579,,0.09687499701976776
952,,0.08062499761581421,,0.0925000011920929
953,,0.09312500059604645,,0.10437499731779099
954,,0.08062499761581421,,0.09562499821186066
955,,0.0949999988079071,,0.09624999761581421
956,,0.08562500029802322,,0.09937500208616257
957,,0.08562500029802322,,0.08937499672174454
958,,0.08874999731779099,,0.09937500208616257
959,,0.08687499910593033,,0.0949999988079071
960,,0.0793749988079071,,0.09375
961,,0.08687499910593033,,0.0949999988079071
962,,0.08749999850988388,,0.10000000149011612
963,,0.08375000208616257,,0.09437499940395355
964,,0.08375000208616257,,0.10437499731779099
965,,0.08687499910593033,,0.08749999850988388
966,,0.08187499642372131,,0.10312499850988388
967,,0.07625000178813934,,0.0949999988079071
968,,0.08312500268220901,,0.10000000149011612
969,,0.08187499642372131,,0.09437499940395355
970,,0.08312500268220901,,0.09749999642372131
971,,0.08749999850988388,,0.09749999642372131
972,,0.08874999731779099,,0.09312500059604645
973,,0.08687499910593033,,0.09437499940395355
974,,0.08124999701976776,,0.10687500238418579
975,,0.08874999731779099,,0.09062500298023224
976,,0.08500000089406967,,0.0925000011920929
977,,0.07625000178813934,,0.09187500178813934
978,,0.08124999701976776,,0.10125000029802322
979,,0.08250000327825546,,0.0925000011920929
980,,0.08375000208616257,,0.10312499850988388
981,,0.09125000238418579,,0.09937500208616257
982,,0.09437499940395355,,0.10000000149011612
983,,0.08437500149011612,,0.09812500327825546
984,,0.08062499761581421,,0.0949999988079071
985,,0.08562500029802322,,0.09687499701976776
986,,0.08437500149011612,,0.09687499701976776
987,,0.0768750011920929,,0.09562499821186066
988,,0.08749999850988388,,0.09187500178813934
989,,0.08500000089406967,,0.0949999988079071
990,,0.08375000208616257,,0.09187500178813934
991,,0.08250000327825546,,0.10312499850988388
992,,0.08749999850988388,,0.10249999910593033
993,,0.08749999850988388,,0.09000000357627869
994,,0.08250000327825546,,0.09000000357627869
995,,0.08874999731779099,,0.0925000011920929
996,,0.08375000208616257,,0.09749999642372131
997,,0.08937499672174454,,0.10312499850988388
998,,0.09125000238418579,,0.09125000238418579
999,,0.09437499940395355,,0.10499999672174454
1000,,0.08500000089406967,,0.09375
1001,,0.08250000327825546,,0.09125000238418579
1002,,0.08874999731779099,,0.09562499821186066
1003,,0.07750000059604645,,0.09687499701976776
1004,,0.07999999821186066,,0.09687499701976776
1005,,0.08500000089406967,,0.09437499940395355
1006,,0.078125,,0.10000000149011612
1007,,0.07874999940395355,,0.10687500238418579
1008,,0.08749999850988388,,0.09875000268220901
1009,,0.08124999701976776,,0.10125000029802322
1010,,0.08187499642372131,,0.09687499701976776
1011,,0.08812499791383743,,0.10437499731779099
1012,,0.08812499791383743,,0.10062500089406967
1013,,0.08562500029802322,,0.10125000029802322
1014,,0.08812499791383743,,0.10125000029802322
1015,,0.08187499642372131,,0.10562500357627869
1016,,0.0793749988079071,,0.09437499940395355
1017,,0.09187500178813934,,0.10187499970197678
1018,,0.09125000238418579,,0.09687499701976776
1019,,0.08437500149011612,,0.09562499821186066
1020,,0.09000000357627869,,0.09624999761581421
1021,,0.08937499672174454,,0.1081250011920929
1022,,0.08375000208616257,,0.10000000149011612
1023,,0.09062500298023224,,0.0949999988079071
1024,,0.08687499910593033,,0.10374999791383743
1025,,0.07374999672174454,,0.09937500208616257
1026,,0.09187500178813934,,0.09812500327825546
1027,,0.08500000089406967,,0.09812500327825546
1028,,0.08312500268220901,,0.10187499970197678
1029,,0.07874999940395355,,0.0925000011920929
1030,,0.07625000178813934,,0.09375
1031,,0.07312499731779099,,0.09125000238418579
1032,,0.08624999970197678,,0.09624999761581421
1033,,0.08749999850988388,,0.09687499701976776
1034,,0.08062499761581421,,0.09937500208616257
1035,,0.08874999731779099,,0.09624999761581421
1036,,0.08749999850988388,,0.09437499940395355
1037,,0.08062499761581421,,0.09875000268220901
1038,,0.08562500029802322,,0.09312500059604645
1039,,0.08812499791383743,,0.09562499821186066
1040,,0.08500000089406967,,0.0949999988079071
1041,,0.08500000089406967,,0.09624999761581421
1042,,0.08874999731779099,,0.09875000268220901
1043,,0.08250000327825546,,0.10750000178813934
1044,,0.09000000357627869,,0.08749999850988388
1045,,0.07999999821186066,,0.08500000089406967
1046,,0.08187499642372131,,0.0925000011920929
1047,,0.08375000208616257,,0.09875000268220901
1048,,0.08937499672174454,,0.09375
1049,,0.078125,,0.0925000011920929
1050,,0.10187499970197678,,0.09624999761581421
1051,,0.08812499791383743,,0.09312500059604645
1052,,0.08749999850988388,,0.10499999672174454
1053,,0.10125000029802322,,0.10062500089406967
1054,,0.08812499791383743,,0.09624999761581421
1055,,0.09062500298023224,,0.10062500089406967
1056,,0.08312500268220901,,0.09937500208616257
1057,,0.09187500178813934,,0.09624999761581421
1058,,0.08624999970197678,,0.09624999761581421
1059,,0.08624999970197678,,0.09624999761581421
1060,,0.07874999940395355,,0.109375
1061,,0.08187499642372131,,0.09062500298023224
1062,,0.08375000208616257,,0.09937500208616257
1063,,0.08812499791383743,,0.09562499821186066
1064,,0.08687499910593033,,0.09812500327825546
1065,,0.08687499910593033,,0.09937500208616257
1066,,0.08562500029802322,,0.10062500089406967
1067,,0.08375000208616257,,0.08749999850988388
1068,,0.09562499821186066,,0.09187500178813934
1069,,0.08312500268220901,,0.10187499970197678
1070,,0.08062499761581421,,0.09312500059604645
1071,,0.09312500059604645,,0.09562499821186066
1072,,0.09000000357627869,,0.08562500029802322
1073,,0.07999999821186066,,0.09187500178813934
1074,,0.0793749988079071,,0.09062500298023224
1075,,0.09187500178813934,,0.09687499701976776
1076,,0.07750000059604645,,0.09312500059604645
1077,,0.07625000178813934,,0.09000000357627869
1078,,0.07625000178813934,,0.09437499940395355
1079,,0.0768750011920929,,0.09125000238418579
1080,,0.078125,,0.10625000298023224
1081,,0.09312500059604645,,0.10499999672174454
1082,,0.09062500298023224,,0.10187499970197678
1083,,0.07625000178813934,,0.09749999642372131
1084,,0.09312500059604645,,0.10249999910593033
1085,,0.08250000327825546,,0.10312499850988388
1086,,0.08562500029802322,,0.09312500059604645
1087,,0.0793749988079071,,0.09749999642372131
1088,,0.08749999850988388,,0.0925000011920929
1089,,0.07874999940395355,,0.09937500208616257
1090,,0.08687499910593033,,0.09687499701976776
1091,,0.08687499910593033,,0.09812500327825546
1092,,0.08437500149011612,,0.09125000238418579
1093,,0.08375000208616257,,0.10499999672174454
1094,,0.08874999731779099,,0.0949999988079071
1095,,0.08124999701976776,,0.10187499970197678
1096,,0.07750000059604645,,0.0949999988079071
1097,,0.08375000208616257,,0.10062500089406967
1098,,0.08124999701976776,,0.08624999970197678
1099,,0.07437500357627869,,0.10437499731779099
1100,,0.08250000327825546,,0.0949999988079071
1101,,0.0949999988079071,,0.09062500298023224
1102,,0.07625000178813934,,0.10687500238418579
1103,,0.09687499701976776,,0.0949999988079071
1104,,0.09125000238418579,,0.09937500208616257
1105,,0.078125,,0.08874999731779099
1106,,0.09375,,0.09937500208616257
1107,,0.0793749988079071,,0.09812500327825546
1108,,0.08124999701976776,,0.09375
1109,,0.08749999850988388,,0.09749999642372131
1110,,0.08812499791383743,,0.09749999642372131
1111,,0.0768750011920929,,0.09875000268220901
1112,,0.08124999701976776,,0.10000000149011612
1113,,0.08624999970197678,,0.09437499940395355
1114,,0.08437500149011612,,0.09937500208616257
1115,,0.08187499642372131,,0.10000000149011612
1116,,0.07874999940395355,,0.09687499701976776
1117,,0.09062500298023224,,0.0949999988079071
1118,,0.09687499701976776,,0.08812499791383743
1119,,0.09062500298023224,,0.10187499970197678
1120,,0.08562500029802322,,0.09937500208616257
1121,,0.10249999910593033,,0.0925000011920929
1122,,0.0925000011920929,,0.09187500178813934
1123,,0.08749999850988388,,0.09125000238418579
1124,,0.08437500149011612,,0.10187499970197678
1125,,0.078125,,0.08250000327825546
1126,,0.08187499642372131,,0.09624999761581421
1127,,0.08562500029802322,,0.09687499701976776
1128,,0.08375000208616257,,0.09125000238418579
1129,,0.09125000238418579,,0.10249999910593033
1130,,0.08687499910593033,,0.10374999791383743
1131,,0.08312500268220901,,0.09937500208616257
1132,,0.09375,,0.09687499701976776
1133,,0.08624999970197678,,0.10249999910593033
1134,,0.08062499761581421,,0.09562499821186066
1135,,0.08250000327825546,,0.09000000357627869
1136,,0.07750000059604645,,0.10562500357627869
1137,,0.07874999940395355,,0.09749999642372131
1138,,0.08375000208616257,,0.09624999761581421
1139,,0.08375000208616257,,0.08812499791383743
1140,,0.0768750011920929,,0.10000000149011612
1141,,0.07874999940395355,,0.09937500208616257
1142,,0.07874999940395355,,0.08937499672174454
1143,,0.08375000208616257,,0.09562499821186066
1144,,0.08312500268220901,,0.09749999642372131
1145,,0.08437500149011612,,0.10062500089406967
1146,,0.08624999970197678,,0.08812499791383743
1147,,0.08562500029802322,,0.09187500178813934
1148,,0.09187500178813934,,0.09125000238418579
1149,,0.09000000357627869,,0.09187500178813934
1150,,0.07999999821186066,,0.11375000327825546
1151,,0.07249999791383743,,0.09000000357627869
1152,,0.0768750011920929,,0.08937499672174454
1153,,0.09312500059604645,,0.09562499821186066
1154,,0.09125000238418579,,0.10062500089406967
1155,,0.09000000357627869,,0.10125000029802322
1156,,0.09000000357627869,,0.0949999988079071
1157,,0.07374999672174454,,0.09624999761581421
1158,,0.09125000238418579,,0.08874999731779099
1159,,0.08437500149011612,,0.1081250011920929
1160,,0.08124999701976776,,0.09937500208616257
1161,,0.08937499672174454,,0.10125000029802322
1162,,0.08500000089406967,,0.0949999988079071
1163,,0.08437500149011612,,0.09812500327825546
1164,,0.09125000238418579,,0.10187499970197678
1165,,0.08874999731779099,,0.10062500089406967
1166,,0.08062499761581421,,0.09875000268220901
1167,,0.08937499672174454,,0.09312500059604645
1168,,0.08375000208616257,,0.0925000011920929
1169,,0.09125000238418579,,0.09812500327825546
1170,,0.08500000089406967,,0.09937500208616257
1171,,0.08062499761581421,,0.09749999642372131
1172,,0.07999999821186066,,0.08937499672174454
1173,,0.08812499791383743,,0.08562500029802322
1174,,0.07625000178813934,,0.09749999642372131
1175,,0.08124999701976776,,0.09875000268220901
1176,,0.08812499791383743,,0.10125000029802322
1177,,0.08937499672174454,,0.09125000238418579
1178,,0.08874999731779099,,0.09812500327825546
1179,,0.08624999970197678,,0.10437499731779099
1180,,0.08375000208616257,,0.09937500208616257
1181,,0.08437500149011612,,0.0949999988079071
1182,,0.0925000011920929,,0.09749999642372131
1183,,0.07374999672174454,,0.08749999850988388
1184,,0.08500000089406967,,0.10000000149011612
1185,,0.08687499910593033,,0.09000000357627869
1186,,0.08312500268220901,,0.10437499731779099
1187,,0.08250000327825546,,0.08874999731779099
1188,,0.09562499821186066,,0.10249999910593033
1189,,0.08874999731779099,,0.10312499850988388
1190,,0.07562500238418579,,0.09062500298023224
1191,,0.07249999791383743,,0.10562500357627869
1192,,0.08874999731779099,,0.09937500208616257
1193,,0.08937499672174454,,0.09624999761581421
1194,,0.09749999642372131,,0.09375
1195,,0.078125,,0.08500000089406967
1196,,0.08562500029802322,,0.09062500298023224
1197,,0.08375000208616257,,0.09312500059604645
1198,,0.09062500298023224,,0.09749999642372131
1199,,0.09812500327825546,,0.10374999791383743
1200,,0.08437500149011612,,0.09437499940395355
1201,,0.08562500029802322,,0.09875000268220901
1202,,0.08375000208616257,,0.09187500178813934
1203,,0.08749999850988388,,0.10125000029802322
1204,,0.08250000327825546,,0.09749999642372131
1205,,0.08062499761581421,,0.09375
1206,,0.09187500178813934,,0.10000000149011612
1207,,0.08375000208616257,,0.09937500208616257
1208,,0.08687499910593033,,0.09375
1209,,0.08250000327825546,,0.10312499850988388
1210,,0.08749999850988388,,0.09937500208616257
1211,,0.08375000208616257,,0.08437500149011612
1212,,0.07249999791383743,,0.09062500298023224
1213,,0.08500000089406967,,0.09375
1214,,0.08250000327825546,,0.09437499940395355
1215,,0.08312500268220901,,0.0925000011920929
1216,,0.09187500178813934,,0.10187499970197678
1217,,0.07500000298023224,,0.09312500059604645
1218,,0.09125000238418579,,0.08812499791383743
1219,,0.08749999850988388,,0.09687499701976776
1220,,0.09062500298023224,,0.10000000149011612
1221,,0.07999999821186066,,0.09875000268220901
1222,,0.08437500149011612,,0.10499999672174454
1223,,0.07500000298023224,,0.10000000149011612
1224,,0.08562500029802322,,0.10312499850988388
1225,,0.08812499791383743,,0.09812500327825546
1226,,0.08874999731779099,,0.10125000029802322
1227,,0.08624999970197678,,0.09312500059604645
1228,,0.08562500029802322,,0.10000000149011612
1229,,0.0925000011920929,,0.09312500059604645
1230,,0.08624999970197678,,0.09437499940395355
1231,,0.08937499672174454,,0.08624999970197678
1232,,0.09000000357627869,,0.10625000298023224
1233,,0.07750000059604645,,0.09562499821186066
1234,,0.07750000059604645,,0.10000000149011612
1235,,0.078125,,0.09312500059604645
1236,,0.08312500268220901,,0.10437499731779099
1237,,0.08562500029802322,,0.09562499821186066
1238,,0.08624999970197678,,0.10062500089406967
1239,,0.08124999701976776,,0.09624999761581421
1240,,0.08562500029802322,,0.09812500327825546
1241,,0.08874999731779099,,0.09749999642372131
1242,,0.08812499791383743,,0.09187500178813934
1243,,0.0793749988079071,,0.10000000149011612
1244,,0.08312500268220901,,0.09687499701976776
1245,,0.08250000327825546,,0.10000000149011612
1246,,0.07999999821186066,,0.09375
1247,,0.08874999731779099,,0.0949999988079071
1248,,0.07999999821186066,,0.0925000011920929
1249,,0.08687499910593033,,0.0949999988079071
1250,,0.09312500059604645,,0.09937500208616257
1251,,0.09062500298023224,,0.09812500327825546
1252,,0.08062499761581421,,0.10000000149011612
1253,,0.08500000089406967,,0.09687499701976776
1254,,0.08749999850988388,,0.09937500208616257
1255,,0.09187500178813934,,0.09000000357627869
1256,,0.09062500298023224,,0.10249999910593033
1257,,0.08874999731779099,,0.09687499701976776
1258,,0.08250000327825546,,0.09812500327825546
1259,,0.08375000208616257,,0.0949999988079071
1260,,0.08375000208616257,,0.08937499672174454
1261,,0.0793749988079071,,0.09437499940395355
1262,,0.09125000238418579,,0.09937500208616257
1263,,0.09000000357627869,,0.09375
1264,,0.08500000089406967,,0.10062500089406967
1265,,0.08124999701976776,,0.09875000268220901
1266,,0.06812500208616257,,0.09749999642372131
1267,,0.09624999761581421,,0.09812500327825546
1268,,0.09312500059604645,,0.10000000149011612
1269,,0.0768750011920929,,0.0949999988079071
1270,,0.08312500268220901,,0.10125000029802322
1271,,0.08250000327825546,,0.09187500178813934
1272,,0.08937499672174454,,0.10062500089406967
1273,,0.07999999821186066,,0.08812499791383743
1274,,0.09187500178813934,,0.09749999642372131
1275,,0.08687499910593033,,0.08812499791383743
1276,,0.08812499791383743,,0.08749999850988388
1277,,0.0925000011920929,,0.09687499701976776
1278,,0.09687499701976776,,0.10312499850988388
1279,,0.07312499731779099,,0.0949999988079071
1280,,0.09000000357627869,,0.10687500238418579
1281,,0.08874999731779099,,0.08687499910593033
1282,,0.078125,,0.10437499731779099
1283,,0.09437499940395355,,0.10249999910593033
1284,,0.09562499821186066,,0.09812500327825546
1285,,0.08187499642372131,,0.08874999731779099
1286,,0.08749999850988388,,0.09125000238418579
1287,,0.078125,,0.10062500089406967
1288,,0.08812499791383743,,0.09875000268220901
1289,,0.08687499910593033,,0.09312500059604645
1290,,0.08500000089406967,,0.09624999761581421
1291,,0.09375,,0.09812500327825546
1292,,0.07562500238418579,,0.10125000029802322
1293,,0.08124999701976776,,0.10312499850988388
1294,,0.09187500178813934,,0.09125000238418579
1295,,0.08500000089406967,,0.10249999910593033
1296,,0.07750000059604645,,0.09875000268220901
1297,,0.08124999701976776,,0.10062500089406967
1298,,0.08874999731779099,,0.08874999731779099
1299,,0.08187499642372131,,0.0793749988079071
1300,,0.08375000208616257,,0.09437499940395355
1301,,0.09000000357627869,,0.10562500357627869
1302,,0.08749999850988388,,0.09125000238418579
1303,,0.09062500298023224,,0.09312500059604645
1304,,0.07750000059604645,,0.09875000268220901
1305,,0.09562499821186066,,0.09937500208616257
1306,,0.08874999731779099,,0.09187500178813934
1307,,0.08812499791383743,,0.09187500178813934
1308,,0.09125000238418579,,0.0925000011920929
1309,,0.08124999701976776,,0.09624999761581421
1310,,0.08375000208616257,,0.0949999988079071
1311,,0.08312500268220901,,0.09562499821186066
1312,,0.08874999731779099,,0.09749999642372131
1313,,0.07750000059604645,,0.09937500208616257
1314,,0.09624999761581421,,0.09437499940395355
1315,,0.08624999970197678,,0.0925000011920929
1316,,0.08312500268220901,,0.08874999731779099
1317,,0.08562500029802322,,0.09937500208616257
1318,,0.08937499672174454,,0.10499999672174454
1319,,0.08250000327825546,,0.10562500357627869
1320,,0.07437500357627869,,0.09062500298023224
1321,,0.08687499910593033,,0.09062500298023224
1322,,0.08937499672174454,,0.10499999672174454
1323,,0.08500000089406967,,0.09187500178813934
1324,,0.07999999821186066,,0.09562499821186066
1325,,0.09000000357627869,,0.08812499791383743
1326,,0.08562500029802322,,0.09562499821186066
1327,,0.08749999850988388,,0.09624999761581421
1328,,0.08500000089406967,,0.09437499940395355
1329,,0.07625000178813934,,0.08687499910593033
1330,,0.08687499910593033,,0.09562499821186066
1331,,0.08687499910593033,,0.09749999642372131
1332,,0.08937499672174454,,0.10875000059604645
1333,,0.08250000327825546,,0.10562500357627869
1334,,0.08062499761581421,,0.0949999988079071
1335,,0.078125,,0.09937500208616257
1336,,0.07999999821186066,,0.10187499970197678
1337,,0.08624999970197678,,0.09875000268220901
1338,,0.08312500268220901,,0.10125000029802322
1339,,0.08375000208616257,,0.10374999791383743
1340,,0.08187499642372131,,0.10374999791383743
1341,,0.0925000011920929,,0.09562499821186066
1342,,0.0768750011920929,,0.08812499791383743
1343,,0.08062499761581421,,0.09312500059604645
1344,,0.08312500268220901,,0.09687499701976776
1345,,0.09375,,0.09562499821186066
1346,,0.09000000357627869,,0.09062500298023224
1347,,0.08187499642372131,,0.09000000357627869
1348,,0.08124999701976776,,0.0925000011920929
1349,,0.08375000208616257,,0.10562500357627869
1350,,0.08375000208616257,,0.09562499821186066
1351,,0.08500000089406967,,0.09812500327825546
1352,,0.08874999731779099,,0.08937499672174454
1353,,0.08624999970197678,,0.09125000238418579
1354,,0.08562500029802322,,0.09312500059604645
1355,,0.08312500268220901,,0.09437499940395355
1356,,0.07187499850988388,,0.09562499821186066
1357,,0.08500000089406967,,0.09812500327825546
1358,,0.08375000208616257,,0.09187500178813934
1359,,0.08437500149011612,,0.09624999761581421
1360,,0.08437500149011612,,0.10000000149011612
1361,,0.08624999970197678,,0.10374999791383743
1362,,0.08437500149011612,,0.10187499970197678
1363,,0.07500000298023224,,0.10687500238418579
1364,,0.08250000327825546,,0.10249999910593033
1365,,0.07874999940395355,,0.10374999791383743
1366,,0.08687499910593033,,0.10125000029802322
1367,,0.08250000327825546,,0.09062500298023224
1368,,0.08749999850988388,,0.09687499701976776
1369,,0.09062500298023224,,0.09749999642372131
1370,,0.08312500268220901,,0.09187500178813934
1371,,0.09187500178813934,,0.09624999761581421
1372,,0.08437500149011612,,0.09562499821186066
1373,,0.09125000238418579,,0.10062500089406967
1374,,0.07999999821186066,,0.10437499731779099
1375,,0.08874999731779099,,0.09687499701976776
1376,,0.08437500149011612,,0.09875000268220901
1377,,0.07999999821186066,,0.09749999642372131
1378,,0.08124999701976776,,0.09375
1379,,0.07874999940395355,,0.09312500059604645
1380,,0.09187500178813934,,0.10000000149011612
1381,,0.09062500298023224,,0.09125000238418579
1382,,0.09062500298023224,,0.09937500208616257
1383,,0.08562500029802322,,0.09749999642372131
1384,,0.07437500357627869,,0.09312500059604645
1385,,0.09312500059604645,,0.0925000011920929
1386,,0.08187499642372131,,0.10000000149011612
1387,,0.08312500268220901,,0.08312500268220901
1388,,0.0768750011920929,,0.10062500089406967
1389,,0.08812499791383743,,0.09062500298023224
1390,,0.09687499701976776,,0.09437499940395355
1391,,0.07374999672174454,,0.10062500089406967
1392,,0.08812499791383743,,0.09187500178813934
1393,,0.07874999940395355,,0.09562499821186066
1394,,0.09624999761581421,,0.10249999910593033
1395,,0.08624999970197678,,0.10000000149011612
1396,,0.09375,,0.09187500178813934
1397,,0.08312500268220901,,0.09562499821186066
1398,,0.08500000089406967,,0.10312499850988388
1399,,0.08812499791383743,,0.08437500149011612
1400,,0.08312500268220901,,0.09937500208616257
1401,,0.08062499761581421,,0.10062500089406967
1402,,0.0925000011920929,,0.09312500059604645
1403,,0.08562500029802322,,0.10125000029802322
1404,,0.08437500149011612,,0.09875000268220901
1405,,0.0925000011920929,,0.09000000357627869
1406,,0.08874999731779099,,0.09437499940395355
1407,,0.08624999970197678,,0.09687499701976776
1408,,0.07437500357627869,,0.09312500059604645
1409,,0.08687499910593033,,0.09375
1410,,0.09187500178813934,,0.09812500327825546
1411,,0.09437499940395355,,0.09687499701976776
1412,,0.08375000208616257,,0.09312500059604645
1413,,0.08687499910593033,,0.0949999988079071
1414,,0.09062500298023224,,0.09812500327825546
1415,,0.07750000059604645,,0.09312500059604645
1416,,0.08749999850988388,,0.09749999642372131
1417,,0.08124999701976776,,0.09562499821186066
1418,,0.07999999821186066,,0.09687499701976776
1419,,0.08437500149011612,,0.09937500208616257
1420,,0.07999999821186066,,0.09312500059604645
1421,,0.07874999940395355,,0.09375
1422,,0.07874999940395355,,0.10187499970197678
1423,,0.08624999970197678,,0.08874999731779099
1424,,0.09187500178813934,,0.09687499701976776
1425,,0.08749999850988388,,0.10374999791383743
1426,,0.07625000178813934,,0.09812500327825546
1427,,0.08812499791383743,,0.10249999910593033
1428,,0.08062499761581421,,0.09624999761581421
1429,,0.08187499642372131,,0.09562499821186066
1430,,0.07874999940395355,,0.10249999910593033
1431,,0.08250000327825546,,0.09687499701976776
1432,,0.08749999850988388,,0.10374999791383743
1433,,0.07874999940395355,,0.09375
1434,,0.07374999672174454,,0.09562499821186066
1435,,0.07874999940395355,,0.10125000029802322
1436,,0.08187499642372131,,0.09749999642372131
1437,,0.09125000238418579,,0.09937500208616257
1438,,0.08812499791383743,,0.09187500178813934
1439,,0.08437500149011612,,0.10125000029802322
1440,,0.07999999821186066,,0.09749999642372131
1441,,0.08187499642372131,,0.10312499850988388
1442,,0.07750000059604645,,0.09437499940395355
1443,,0.08749999850988388,,0.10312499850988388
1444,,0.09125000238418579,,0.09437499940395355
1445,,0.0793749988079071,,0.10249999910593033
1446,,0.07312499731779099,,0.09875000268220901
1447,,0.09375,,0.09687499701976776
1448,,0.08562500029802322,,0.09624999761581421
1449,,0.0925000011920929,,0.09437499940395355
1450,,0.09125000238418579,,0.10125000029802322
1451,,0.08937499672174454,,0.10062500089406967
1452,,0.07999999821186066,,0.09375
1453,,0.08624999970197678,,0.09687499701976776
1454,,0.08562500029802322,,0.10249999910593033
1455,,0.08937499672174454,,0.0949999988079071
1456,,0.08812499791383743,,0.0949999988079071
1457,,0.0793749988079071,,0.10249999910593033
1458,,0.07874999940395355,,0.09000000357627869
1459,,0.08500000089406967,,0.09375
1460,,0.08687499910593033,,0.09812500327825546
1461,,0.08250000327825546,,0.09687499701976776
1462,,0.09125000238418579,,0.10687500238418579
1463,,0.08187499642372131,,0.09812500327825546
1464,,0.08312500268220901,,0.10000000149011612
1465,,0.08812499791383743,,0.0949999988079071
1466,,0.08624999970197678,,0.10312499850988388
1467,,0.08624999970197678,,0.0949999988079071
1468,,0.0793749988079071,,0.0949999988079071
1469,,0.08312500268220901,,0.10249999910593033
1470,,0.08500000089406967,,0.09437499940395355
1471,,0.08687499910593033,,0.09687499701976776
1472,,0.0793749988079071,,0.09687499701976776
1473,,0.0793749988079071,,0.10062500089406967
1474,,0.07500000298023224,,0.10062500089406967
1475,,0.08124999701976776,,0.09187500178813934
1476,,0.08312500268220901,,0.09687499701976776
1477,,0.09437499940395355,,0.09375
1478,,0.08124999701976776,,0.10249999910593033
1479,,0.08500000089406967,,0.09562499821186066
1480,,0.09187500178813934,,0.09624999761581421
1481,,0.09125000238418579,,0.10062500089406967
1482,,0.08687499910593033,,0.09062500298023224
1483,,0.08312500268220901,,0.09187500178813934
1484,,0.09000000357627869,,0.09312500059604645
1485,,0.07562500238418579,,0.09812500327825546
1486,,0.09000000357627869,,0.08874999731779099
1487,,0.08375000208616257,,0.09624999761581421
1488,,0.08124999701976776,,0.08812499791383743
1489,,0.08562500029802322,,0.09000000357627869
1490,,0.09000000357627869,,0.09062500298023224
1491,,0.09125000238418579,,0.09749999642372131
1492,,0.0793749988079071,,0.09000000357627869
1493,,0.08874999731779099,,0.08749999850988388
1494,,0.08062499761581421,,0.09125000238418579
1495,,0.09125000238418579,,0.10374999791383743
1496,,0.08312500268220901,,0.09624999761581421
1497,,0.08937499672174454,,0.0949999988079071
1498,,0.08937499672174454,,0.09875000268220901
1499,,0.07874999940395355,,0.09437499940395355
1500,,0.08500000089406967,,0.08562500029802322
1501,,0.08812499791383743,,0.09687499701976776
1502,,0.07874999940395355,,0.10125000029802322
1503,,0.07999999821186066,,0.09375
1504,,0.08624999970197678,,0.0949999988079071
1505,,0.08062499761581421,,0.10062500089406967
1506,,0.08874999731779099,,0.09312500059604645
1507,,0.07312499731779099,,0.08812499791383743
1508,,0.08312500268220901,,0.10187499970197678
1509,,0.09000000357627869,,0.10000000149011612
1510,,0.08624999970197678,,0.09375
1511,,0.08312500268220901,,0.10312499850988388
1512,,0.08500000089406967,,0.10062500089406967
1513,,0.08562500029802322,,0.09687499701976776
1514,,0.09062500298023224,,0.09000000357627869
1515,,0.08500000089406967,,0.09937500208616257
1516,,0.07750000059604645,,0.08437500149011612
1517,,0.0768750011920929,,0.09687499701976776
1518,,0.08687499910593033,,0.09437499940395355
1519,,0.08562500029802322,,0.10437499731779099
1520,,0.09062500298023224,,0.10062500089406967
1521,,0.08749999850988388,,0.09875000268220901
1522,,0.09375,,0.08937499672174454
1523,,0.09437499940395355,,0.09687499701976776
1524,,0.08312500268220901,,0.10125000029802322
1525,,0.08312500268220901,,0.10374999791383743
1526,,0.09187500178813934,,0.09875000268220901
1527,,0.08749999850988388,,0.09562499821186066
1528,,0.08687499910593033,,0.08500000089406967
1529,,0.07312499731779099,,0.10062500089406967
1530,,0.10312499850988388,,0.09624999761581421
1531,,0.08250000327825546,,0.09062500298023224
1532,,0.08312500268220901,,0.09062500298023224
1533,,0.09000000357627869,,0.09562499821186066
1534,,0.08250000327825546,,0.10062500089406967
1535,,0.09749999642372131,,0.09749999642372131
1536,,0.09312500059604645,,0.09000000357627869
1537,,0.08687499910593033,,0.09437499940395355
1538,,0.08749999850988388,,0.0949999988079071
1539,,0.08687499910593033,,0.09937500208616257
1540,,0.08250000327825546,,0.10000000149011612
1541,,0.08437500149011612,,0.09749999642372131
1542,,0.09062500298023224,,0.09937500208616257
1543,,0.07999999821186066,,0.10125000029802322
1544,,0.07750000059604645,,0.09437499940395355
1545,,0.07999999821186066,,0.10062500089406967
1546,,0.09562499821186066,,0.10562500357627869
1547,,0.08874999731779099,,0.09687499701976776
1548,,0.09000000357627869,,0.09749999642372131
1549,,0.08124999701976776,,0.09562499821186066
1550,,0.09687499701976776,,0.09875000268220901
1551,,0.0768750011920929,,0.10312499850988388
1552,,0.08312500268220901,,0.10125000029802322
1553,,0.09812500327825546,,0.09062500298023224
1554,,0.08187499642372131,,0.09812500327825546
1555,,0.0793749988079071,,0.09937500208616257
1556,,0.09312500059604645,,0.08687499910593033
1557,,0.08812499791383743,,0.09562499821186066
1558,,0.08250000327825546,,0.09749999642372131
1559,,0.08187499642372131,,0.09687499701976776
1560,,0.08250000327825546,,0.10312499850988388
1561,,0.08437500149011612,,0.09687499701976776
1562,,0.078125,,0.09562499821186066
1563,,0.08500000089406967,,0.10000000149011612
1564,,0.08250000327825546,,0.09562499821186066
1565,,0.07999999821186066,,0.09437499940395355
1566,,0.08437500149011612,,0.09749999642372131
1567,,0.08812499791383743,,0.10000000149011612
1568,,0.08124999701976776,,0.09624999761581421
1569,,0.07500000298023224,,0.09624999761581421
1570,,0.08124999701976776,,0.09624999761581421
1571,,0.08687499910593033,,0.10875000059604645
1572,,0.0949999988079071,,0.0949999988079071
1573,,0.07874999940395355,,0.09687499701976776
1574,,0.09062500298023224,,0.09812500327825546
1575,,0.09000000357627869,,0.09437499940395355
1576,,0.08562500029802322,,0.0949999988079071
1577,,0.09125000238418579,,0.08749999850988388
1578,,0.08187499642372131,,0.09437499940395355
1579,,0.08437500149011612,,0.09562499821186066
1580,,0.08250000327825546,,0.09937500208616257
1581,,0.08500000089406967,,0.08500000089406967
1582,,0.08062499761581421,,0.09937500208616257
1583,,0.07625000178813934,,0.10125000029802322
1584,,0.08812499791383743,,0.10249999910593033
1585,,0.09062500298023224,,0.10187499970197678
1586,,0.08250000327825546,,0.09937500208616257
1587,,0.0925000011920929,,0.09875000268220901
1588,,0.08562500029802322,,0.09437499940395355
1589,,0.09062500298023224,,0.10187499970197678
1590,,0.08187499642372131,,0.09875000268220901
1591,,0.08874999731779099,,0.09937500208616257
1592,,0.08187499642372131,,0.09000000357627869
1593,,0.09375,,0.09187500178813934
1594,,0.08375000208616257,,0.09749999642372131
1595,,0.09312500059604645,,0.08937499672174454
1596,,0.08562500029802322,,0.09062500298023224
1597,,0.08312500268220901,,0.09125000238418579
1598,,0.09687499701976776,,0.09937500208616257
1599,,0.08624999970197678,,0.09812500327825546
1600,,0.09312500059604645,,0.10312499850988388
1601,,0.08749999850988388,,0.09749999642372131
1602,,0.09312500059604645,,0.09312500059604645
1603,,0.09062500298023224,,0.10750000178813934
1604,,0.07500000298023224,,0.09312500059604645
1605,,0.08124999701976776,,0.0949999988079071
1606,,0.08437500149011612,,0.0949999988079071
1607,,0.08749999850988388,,0.0949999988079071
1608,,0.08187499642372131,,0.10687500238418579
1609,,0.09812500327825546,,0.08937499672174454
1610,,0.08562500029802322,,0.10000000149011612
1611,,0.08375000208616257,,0.09187500178813934
1612,,0.08749999850988388,,0.08812499791383743
1613,,0.07437500357627869,,0.09624999761581421
1614,,0.08437500149011612,,0.10187499970197678
1615,,0.08937499672174454,,0.09624999761581421
1616,,0.09125000238418579,,0.09875000268220901
1617,,0.08437500149011612,,0.10000000149011612
1618,,0.07999999821186066,,0.09937500208616257
1619,,0.08312500268220901,,0.09375
1620,,0.09062500298023224,,0.10000000149011612
1621,,0.08062499761581421,,0.10312499850988388
1622,,0.08437500149011612,,0.09687499701976776
1623,,0.08437500149011612,,0.09624999761581421
1624,,0.08562500029802322,,0.10312499850988388
1625,,0.08250000327825546,,0.09062500298023224
1626,,0.08250000327825546,,0.09000000357627869
1627,,0.08187499642372131,,0.10312499850988388
1628,,0.07750000059604645,,0.08874999731779099
1629,,0.08749999850988388,,0.09312500059604645
1630,,0.08812499791383743,,0.09812500327825546
1631,,0.09687499701976776,,0.09187500178813934
1632,,0.08187499642372131,,0.08500000089406967
1633,,0.09000000357627869,,0.10187499970197678
1634,,0.08187499642372131,,0.09875000268220901
1635,,0.08124999701976776,,0.09062500298023224
1636,,0.08375000208616257,,0.10062500089406967
1637,,0.09000000357627869,,0.09875000268220901
1638,,0.08250000327825546,,0.10000000149011612
1639,,0.08562500029802322,,0.09187500178813934
1640,,0.08749999850988388,,0.08624999970197678
1641,,0.08500000089406967,,0.09375
1642,,0.08124999701976776,,0.08937499672174454
1643,,0.08812499791383743,,0.0925000011920929
1644,,0.08624999970197678,,0.09375
1645,,0.08624999970197678,,0.09937500208616257
1646,,0.08250000327825546,,0.10312499850988388
1647,,0.09312500059604645,,0.10062500089406967
1648,,0.07374999672174454,,0.0949999988079071
1649,,0.08874999731779099,,0.0925000011920929
1650,,0.07500000298023224,,0.09687499701976776
1651,,0.08937499672174454,,0.09875000268220901
1652,,0.08062499761581421,,0.09687499701976776
1653,,0.09125000238418579,,0.10125000029802322
1654,,0.0949999988079071,,0.0949999988079071
1655,,0.09125000238418579,,0.09812500327825546
1656,,0.08312500268220901,,0.10000000149011612
1657,,0.08812499791383743,,0.09624999761581421
1658,,0.0793749988079071,,0.09687499701976776
1659,,0.07874999940395355,,0.1081250011920929
1660,,0.08562500029802322,,0.09312500059604645
1661,,0.08500000089406967,,0.0949999988079071
1662,,0.08250000327825546,,0.10187499970197678
1663,,0.08749999850988388,,0.09000000357627869
1664,,0.09187500178813934,,0.09687499701976776
1665,,0.08312500268220901,,0.09062500298023224
1666,,0.09187500178813934,,0.08250000327825546
1667,,0.08124999701976776,,0.09562499821186066
1668,,0.09375,,0.09562499821186066
1669,,0.0949999988079071,,0.10062500089406967
1670,,0.07500000298023224,,0.10062500089406967
1671,,0.07437500357627869,,0.09062500298023224
1672,,0.08124999701976776,,0.09875000268220901
1673,,0.09000000357627869,,0.10374999791383743
1674,,0.08687499910593033,,0.09749999642372131
1675,,0.08375000208616257,,0.09062500298023224
1676,,0.09875000268220901,,0.09125000238418579
1677,,0.08250000327825546,,0.09437499940395355
1678,,0.0793749988079071,,0.09000000357627869
1679,,0.09125000238418579,,0.09937500208616257
1680,,0.08375000208616257,,0.08687499910593033
1681,,0.08437500149011612,,0.09562499821186066
1682,,0.07625000178813934,,0.10062500089406967
1683,,0.08749999850988388,,0.09125000238418579
1684,,0.08250000327825546,,0.09375
1685,,0.08375000208616257,,0.0949999988079071
1686,,0.08124999701976776,,0.09312500059604645
1687,,0.09562499821186066,,0.10000000149011612
1688,,0.08812499791383743,,0.0925000011920929
1689,,0.08874999731779099,,0.09187500178813934
1690,,0.0793749988079071,,0.09687499701976776
1691,,0.08500000089406967,,0.10499999672174454
1692,,0.08687499910593033,,0.09687499701976776
1693,,0.0793749988079071,,0.09937500208616257
1694,,0.09000000357627869,,0.10187499970197678
1695,,0.08500000089406967,,0.0793749988079071
1696,,0.08749999850988388,,0.09875000268220901
1697,,0.07124999910593033,,0.0949999988079071
1698,,0.08062499761581421,,0.09687499701976776
1699,,0.09125000238418579,,0.09624999761581421
1700,,0.08749999850988388,,0.0925000011920929
1701,,0.0949999988079071,,0.09812500327825546
1702,,0.08062499761581421,,0.09687499701976776
1703,,0.09062500298023224,,0.09437499940395355
1704,,0.078125,,0.09375
1705,,0.08124999701976776,,0.0949999988079071
1706,,0.07750000059604645,,0.09812500327825546
1707,,0.0768750011920929,,0.09562499821186066
1708,,0.08250000327825546,,0.09687499701976776
1709,,0.09125000238418579,,0.09749999642372131
1710,,0.08562500029802322,,0.10062500089406967
1711,,0.0793749988079071,,0.10062500089406967
1712,,0.07750000059604645,,0.0949999988079071
1713,,0.08250000327825546,,0.09812500327825546
1714,,0.08624999970197678,,0.09562499821186066
1715,,0.07874999940395355,,0.09749999642372131
1716,,0.08437500149011612,,0.09062500298023224
1717,,0.09062500298023224,,0.09312500059604645
1718,,0.08687499910593033,,0.09562499821186066
1719,,0.09062500298023224,,0.09312500059604645
1720,,0.07750000059604645,,0.10062500089406967
1721,,0.09000000357627869,,0.09312500059604645
1722,,0.078125,,0.09375
1723,,0.08624999970197678,,0.08687499910593033
1724,,0.09000000357627869,,0.09562499821186066
1725,,0.08937499672174454,,0.09187500178813934
1726,,0.0949999988079071,,0.09375
1727,,0.0949999988079071,,0.10249999910593033
1728,,0.08375000208616257,,0.09749999642372131
1729,,0.07750000059604645,,0.09000000357627869
1730,,0.08312500268220901,,0.09624999761581421
1731,,0.09187500178813934,,0.08687499910593033
1732,,0.08124999701976776,,0.0925000011920929
1733,,0.08500000089406967,,0.09125000238418579
1734,,0.08312500268220901,,0.10000000149011612
1735,,0.08250000327825546,,0.09187500178813934
1736,,0.08375000208616257,,0.08874999731779099
1737,,0.08437500149011612,,0.09875000268220901
1738,,0.08375000208616257,,0.09000000357627869
1739,,0.09000000357627869,,0.10499999672174454
1740,,0.08937499672174454,,0.10562500357627869
1741,,0.08749999850988388,,0.10562500357627869
1742,,0.08062499761581421,,0.0949999988079071
1743,,0.08812499791383743,,0.09749999642372131
1744,,0.09062500298023224,,0.10999999940395355
1745,,0.08687499910593033,,0.09437499940395355
1746,,0.08937499672174454,,0.10062500089406967
1747,,0.09375,,0.09062500298023224
1748,,0.08812499791383743,,0.09812500327825546
1749,,0.07500000298023224,,0.09437499940395355
1750,,0.08124999701976776,,0.09937500208616257
1751,,0.08749999850988388,,0.09624999761581421
1752,,0.078125,,0.09687499701976776
1753,,0.08874999731779099,,0.09437499940395355
1754,,0.08124999701976776,,0.09875000268220901
1755,,0.0768750011920929,,0.09562499821186066
1756,,0.09187500178813934,,0.09687499701976776
1757,,0.07874999940395355,,0.09437499940395355
1758,,0.09000000357627869,,0.09812500327825546
1759,,0.09562499821186066,,0.09812500327825546
1760,,0.07874999940395355,,0.10249999910593033
1761,,0.08749999850988388,,0.0949999988079071
1762,,0.08937499672174454,,0.10562500357627869
1763,,0.08937499672174454,,0.09375
1764,,0.078125,,0.09375
1765,,0.0949999988079071,,0.09312500059604645
1766,,0.08937499672174454,,0.09187500178813934
1767,,0.08624999970197678,,0.09749999642372131
1768,,0.09562499821186066,,0.09937500208616257
1769,,0.0768750011920929,,0.10000000149011612
1770,,0.07750000059604645,,0.10437499731779099
1771,,0.07874999940395355,,0.09187500178813934
1772,,0.08124999701976776,,0.09375
1773,,0.08187499642372131,,0.09875000268220901
1774,,0.08250000327825546,,0.0925000011920929
1775,,0.08562500029802322,,0.09562499821186066
1776,,0.078125,,0.0949999988079071
1777,,0.08874999731779099,,0.09375
1778,,0.08687499910593033,,0.09624999761581421
1779,,0.0949999988079071,,0.08937499672174454
1780,,0.08500000089406967,,0.10000000149011612
1781,,0.09062500298023224,,0.09375
1782,,0.09062500298023224,,0.10374999791383743
1783,,0.08874999731779099,,0.09437499940395355
1784,,0.10000000149011612,,0.0925000011920929
1785,,0.08312500268220901,,0.08812499791383743
1786,,0.09000000357627869,,0.09749999642372131
1787,,0.07625000178813934,,0.09749999642372131
1788,,0.07374999672174454,,0.09749999642372131
1789,,0.09375,,0.09000000357627869
1790,,0.08749999850988388,,0.09375
1791,,0.08812499791383743,,0.10125000029802322
1792,,0.09187500178813934,,0.10374999791383743
1793,,0.0793749988079071,,0.09687499701976776
1794,,0.09187500178813934,,0.09687499701976776
1795,,0.08749999850988388,,0.09312500059604645
1796,,0.07874999940395355,,0.08687499910593033
1797,,0.0768750011920929,,0.10062500089406967
1798,,0.09937500208616257,,0.09812500327825546
1799,,0.07500000298023224,,0.09937500208616257
1800,,0.08812499791383743,,0.10125000029802322
1801,,0.08437500149011612,,0.0925000011920929
1802,,0.08187499642372131,,0.09687499701976776
1803,,0.08500000089406967,,0.09812500327825546
1804,,0.07999999821186066,,0.09687499701976776
1805,,0.09062500298023224,,0.09624999761581421
1806,,0.09000000357627869,,0.0949999988079071
1807,,0.08624999970197678,,0.09187500178813934
1808,,0.08874999731779099,,0.09812500327825546
1809,,0.08687499910593033,,0.10562500357627869
1810,,0.08687499910593033,,0.0925000011920929
1811,,0.08874999731779099,,0.09437499940395355
1812,,0.09187500178813934,,0.08812499791383743
1813,,0.08187499642372131,,0.09187500178813934
1814,,0.078125,,0.0949999988079071
1815,,0.07625000178813934,,0.10062500089406967
1816,,0.07874999940395355,,0.09875000268220901
1817,,0.08375000208616257,,0.09062500298023224
1818,,0.07562500238418579,,0.09749999642372131
1819,,0.08062499761581421,,0.09125000238418579
1820,,0.0949999988079071,,0.09437499940395355
1821,,0.08937499672174454,,0.09437499940395355
1822,,0.08874999731779099,,0.09687499701976776
1823,,0.08562500029802322,,0.11999999731779099
1824,,0.08812499791383743,,0.09812500327825546
1825,,0.09375,,0.09749999642372131
1826,,0.08062499761581421,,0.10000000149011612
1827,,0.08687499910593033,,0.0925000011920929
1828,,0.08874999731779099,,0.09749999642372131
1829,,0.08124999701976776,,0.09562499821186066
1830,,0.08312500268220901,,0.09375
1831,,0.08437500149011612,,0.0925000011920929
1832,,0.08437500149011612,,0.09624999761581421
1833,,0.09125000238418579,,0.09687499701976776
1834,,0.08937499672174454,,0.09812500327825546
1835,,0.08562500029802322,,0.10062500089406967
1836,,0.08562500029802322,,0.09000000357627869
1837,,0.09000000357627869,,0.09312500059604645
1838,,0.08375000208616257,,0.09375
1839,,0.07249999791383743,,0.09437499940395355
1840,,0.08312500268220901,,0.09437499940395355
1841,,0.08437500149011612,,0.09687499701976776
1842,,0.08500000089406967,,0.09875000268220901
1843,,0.07874999940395355,,0.10374999791383743
1844,,0.08375000208616257,,0.10249999910593033
1845,,0.09125000238418579,,0.09562499821186066
1846,,0.07874999940395355,,0.08812499791383743
1847,,0.09312500059604645,,0.10062500089406967
1848,,0.07750000059604645,,0.09437499940395355
1849,,0.08874999731779099,,0.10125000029802322
1850,,0.09187500178813934,,0.10062500089406967
1851,,0.0768750011920929,,0.10062500089406967
1852,,0.08062499761581421,,0.10374999791383743
1853,,0.07437500357627869,,0.08500000089406967
1854,,0.08187499642372131,,0.09562499821186066
1855,,0.08124999701976776,,0.08937499672174454
1856,,0.08375000208616257,,0.09624999761581421
1857,,0.08500000089406967,,0.09749999642372131
1858,,0.09624999761581421,,0.10625000298023224
1859,,0.09812500327825546,,0.09125000238418579
1860,,0.08687499910593033,,0.09125000238418579
1861,,0.078125,,0.09749999642372131
1862,,0.08937499672174454,,0.08874999731779099
1863,,0.07750000059604645,,0.0949999988079071
1864,,0.07187499850988388,,0.09687499701976776
1865,,0.08500000089406967,,0.10249999910593033
1866,,0.08624999970197678,,0.09437499940395355
1867,,0.09000000357627869,,0.09312500059604645
1868,,0.09312500059604645,,0.09812500327825546
1869,,0.09062500298023224,,0.10062500089406967
1870,,0.08187499642372131,,0.09312500059604645
1871,,0.09624999761581421,,0.09624999761581421
1872,,0.09312500059604645,,0.09187500178813934
1873,,0.08187499642372131,,0.10562500357627869
1874,,0.08375000208616257,,0.09749999642372131
1875,,0.09312500059604645,,0.09937500208616257
1876,,0.08687499910593033,,0.09187500178813934
1877,,0.07999999821186066,,0.08500000089406967
1878,,0.0768750011920929,,0.09437499940395355
1879,,0.08812499791383743,,0.10187499970197678
1880,,0.09000000357627869,,0.09437499940395355
1881,,0.08500000089406967,,0.09812500327825546
1882,,0.08312500268220901,,0.09375
1883,,0.0793749988079071,,0.10249999910593033
1884,,0.08562500029802322,,0.10125000029802322
1885,,0.09187500178813934,,0.09749999642372131
1886,,0.08749999850988388,,0.09375
1887,,0.09062500298023224,,0.09687499701976776
1888,,0.08812499791383743,,0.09375
1889,,0.08437500149011612,,0.09125000238418579
1890,,0.08874999731779099,,0.09749999642372131
1891,,0.08749999850988388,,0.09812500327825546
1892,,0.08124999701976776,,0.09749999642372131
1893,,0.07437500357627869,,0.09812500327825546
1894,,0.0925000011920929,,0.10000000149011612
1895,,0.09187500178813934,,0.08937499672174454
1896,,0.08624999970197678,,0.10312499850988388
1897,,0.08500000089406967,,0.0925000011920929
1898,,0.09437499940395355,,0.09937500208616257
1899,,0.0949999988079071,,0.10187499970197678
1900,,0.09437499940395355,,0.09000000357627869
1901,,0.07999999821186066,,0.09437499940395355
1902,,0.08500000089406967,,0.10062500089406967
1903,,0.08250000327825546,,0.09624999761581421
1904,,0.09375,,0.09000000357627869
1905,,0.08062499761581421,,0.09937500208616257
1906,,0.07750000059604645,,0.09624999761581421
1907,,0.08062499761581421,,0.09062500298023224
1908,,0.07874999940395355,,0.09562499821186066
1909,,0.08500000089406967,,0.10000000149011612
1910,,0.09000000357627869,,0.10062500089406967
1911,,0.08124999701976776,,0.09687499701976776
1912,,0.08562500029802322,,0.09312500059604645
1913,,0.07312499731779099,,0.0949999988079071
1914,,0.08874999731779099,,0.09875000268220901
1915,,0.08812499791383743,,0.08749999850988388
1916,,0.07999999821186066,,0.09937500208616257
1917,,0.08500000089406967,,0.09937500208616257
1918,,0.08812499791383743,,0.09937500208616257
1919,,0.08187499642372131,,0.10312499850988388
1920,,0.09125000238418579,,0.09312500059604645
1921,,0.08749999850988388,,0.09937500208616257
1922,,0.08062499761581421,,0.09624999761581421
1923,,0.09312500059604645,,0.09000000357627869
1924,,0.08624999970197678,,0.08562500029802322
1925,,0.08624999970197678,,0.09812500327825546
1926,,0.08874999731779099,,0.09937500208616257
1927,,0.0925000011920929,,0.09062500298023224
1928,,0.09000000357627869,,0.10187499970197678
1929,,0.08624999970197678,,0.09437499940395355
1930,,0.08687499910593033,,0.10999999940395355
1931,,0.07437500357627869,,0.09562499821186066
1932,,0.07437500357627869,,0.10062500089406967
1933,,0.08375000208616257,,0.09687499701976776
1934,,0.07874999940395355,,0.10187499970197678
1935,,0.07500000298023224,,0.09812500327825546
1936,,0.07374999672174454,,0.09125000238418579
1937,,0.08749999850988388,,0.10187499970197678
1938,,0.07999999821186066,,0.10000000149011612
1939,,0.08312500268220901,,0.09062500298023224
1940,,0.0793749988079071,,0.09937500208616257
1941,,0.08624999970197678,,0.09437499940395355
1942,,0.09062500298023224,,0.0949999988079071
1943,,0.07750000059604645,,0.09312500059604645
1944,,0.09749999642372131,,0.09437499940395355
1945,,0.0793749988079071,,0.09749999642372131
1946,,0.08874999731779099,,0.09875000268220901
1947,,0.09000000357627869,,0.09375
1948,,0.08874999731779099,,0.09562499821186066
1949,,0.07062499970197678,,0.10187499970197678
1950,,0.09312500059604645,,0.10312499850988388
1951,,0.08874999731779099,,0.09749999642372131
1952,,0.09125000238418579,,0.0925000011920929
1953,,0.08250000327825546,,0.0949999988079071
1954,,0.08124999701976776,,0.09437499940395355
1955,,0.08375000208616257,,0.08562500029802322
1956,,0.08812499791383743,,0.09624999761581421
1957,,0.078125,,0.10062500089406967
1958,,0.07562500238418579,,0.10625000298023224
1959,,0.07187499850988388,,0.10687500238418579
1960,,0.09062500298023224,,0.08812499791383743
1961,,0.0793749988079071,,0.09187500178813934
1962,,0.09437499940395355,,0.09437499940395355
1963,,0.078125,,0.10374999791383743
1964,,0.07999999821186066,,0.09749999642372131
1965,,0.0768750011920929,,0.09187500178813934
1966,,0.08062499761581421,,0.09062500298023224
1967,,0.09749999642372131,,0.09125000238418579
1968,,0.07999999821186066,,0.0925000011920929
1969,,0.0768750011920929,,0.0925000011920929
1970,,0.0793749988079071,,0.09812500327825546
1971,,0.09062500298023224,,0.09812500327825546
1972,,0.08437500149011612,,0.0949999988079071
1973,,0.08624999970197678,,0.09437499940395355
1974,,0.08749999850988388,,0.09312500059604645
1975,,0.08375000208616257,,0.09624999761581421
1976,,0.09312500059604645,,0.09812500327825546
1977,,0.08687499910593033,,0.0925000011920929
1978,,0.08437500149011612,,0.09624999761581421
1979,,0.08250000327825546,,0.09437499940395355
1980,,0.09687499701976776,,0.09187500178813934
1981,,0.08124999701976776,,0.0949999988079071
1982,,0.07999999821186066,,0.0925000011920929
1983,,0.08874999731779099,,0.09375
1984,,0.07750000059604645,,0.08437500149011612
1985,,0.08624999970197678,,0.09562499821186066
1986,,0.08687499910593033,,0.09875000268220901
1987,,0.08062499761581421,,0.10062500089406967
1988,,0.07750000059604645,,0.09125000238418579
1989,,0.07500000298023224,,0.10249999910593033
1990,,0.07625000178813934,,0.10249999910593033
1991,,0.07562500238418579,,0.09937500208616257
1992,,0.08124999701976776,,0.09312500059604645
1993,,0.08437500149011612,,0.09562499821186066
1994,,0.09375,,0.08749999850988388
1995,,0.08500000089406967,,0.09562499821186066
1996,,0.08874999731779099,,0.08437500149011612
1997,,0.08062499761581421,,0.09749999642372131
1998,,0.07999999821186066,,0.09312500059604645
1999,,0.08624999970197678,,0.09749999642372131
