epoch,loss,acc,val_loss,val_acc
0,1.9803906679153442,0.5525000095367432,1.1133065223693848,0.5737500190734863
1,1.0379986763000488,0.5824999809265137,1.1104224920272827,0.5862500071525574
2,1.034713864326477,0.581250011920929,1.0269513130187988,0.5831249952316284
3,1.0000009536743164,0.6168749928474426,1.0247806310653687,0.5799999833106995
4,1.0593785047531128,0.5787500143051147,1.0780142545700073,0.5774999856948853
5,1.0226714611053467,0.5987499952316284,1.0279737710952759,0.5943750143051147
6,0.9776912927627563,0.6162499785423279,1.0064252614974976,0.5912500023841858
7,1.0004111528396606,0.6037499904632568,0.9989011287689209,0.5899999737739563
8,1.0091665983200073,0.6081249713897705,1.016587257385254,0.5849999785423279
9,1.004815936088562,0.609375,1.0129586458206177,0.5950000286102295
10,1.0247273445129395,0.6018750071525574,1.0230714082717896,0.574999988079071
11,0.9976081252098083,0.6031249761581421,1.053625464439392,0.581250011920929
12,1.0229004621505737,0.5837500095367432,1.0720152854919434,0.5862500071525574
13,0.9979473948478699,0.5956249833106995,1.144261121749878,0.5837500095367432
14,1.000518560409546,0.609375,1.0031847953796387,0.5862500071525574
15,0.9862071871757507,0.6112499833106995,1.0285297632217407,0.5768749713897705
16,0.973415732383728,0.5987499952316284,1.0195598602294922,0.5806249976158142
17,1.0120842456817627,0.5843750238418579,0.9998528957366943,0.5756250023841858
18,1.007635235786438,0.5881249904632568,0.9968438148498535,0.581250011920929
19,0.9768949151039124,0.6018750071525574,1.0104256868362427,0.5799999833106995
20,0.973268985748291,0.6162499785423279,1.0430245399475098,0.559374988079071
21,0.9847370386123657,0.5943750143051147,1.0196597576141357,0.5799999833106995
22,0.9997634291648865,0.6012499928474426,0.9944603443145752,0.5962499976158142
23,0.9653205871582031,0.6087499856948853,0.9925127625465393,0.5862500071525574
24,0.9683957695960999,0.6106250286102295,1.0233474969863892,0.5668749809265137
25,0.9737794995307922,0.6112499833106995,0.9940635561943054,0.5862500071525574
26,0.9782192707061768,0.6050000190734863,1.0146009922027588,0.5799999833106995
27,1.0008171796798706,0.5950000286102295,1.0025008916854858,0.5799999833106995
28,0.9801931977272034,0.6056249737739563,1.0059345960617065,0.5806249976158142
29,0.9903539419174194,0.5950000286102295,1.0062960386276245,0.5856249928474426
30,1.028159499168396,0.5818750262260437,1.0298686027526855,0.5643749833106995
31,1.0009944438934326,0.596875011920929,1.0071531534194946,0.5756250023841858
32,1.0014504194259644,0.5887500047683716,1.008173942565918,0.5849999785423279
33,0.97832190990448,0.606249988079071,1.002794623374939,0.581250011920929
34,0.9789298176765442,0.609375,1.0184979438781738,0.5687500238418579
35,0.9967429637908936,0.6031249761581421,1.0081454515457153,0.5806249976158142
36,1.0031360387802124,0.5899999737739563,1.0017008781433105,0.59375
37,0.983162522315979,0.6081249713897705,0.9830670356750488,0.5962499976158142
38,1.0159693956375122,0.5912500023841858,1.0058069229125977,0.5843750238418579
39,0.9795836806297302,0.6006249785423279,1.0111167430877686,0.5806249976158142
40,0.971385657787323,0.6025000214576721,1.0256153345108032,0.5799999833106995
41,0.9857053160667419,0.5924999713897705,1.0083924531936646,0.5756250023841858
42,1.009562611579895,0.6018750071525574,1.004440188407898,0.5818750262260437
43,0.9737243056297302,0.6181250214576721,1.0250145196914673,0.5774999856948853
44,0.9878933429718018,0.6000000238418579,1.0115060806274414,0.5824999809265137
45,0.9893385171890259,0.6025000214576721,1.0171915292739868,0.5799999833106995
46,0.9913299679756165,0.6031249761581421,1.0137943029403687,0.5712500214576721
47,0.9963065981864929,0.596875011920929,1.0193642377853394,0.5862500071525574
48,0.984652042388916,0.5950000286102295,0.998587429523468,0.5849999785423279
49,0.9618911743164062,0.6006249785423279,1.0078874826431274,0.5874999761581421
50,1.015823245048523,0.5956249833106995,1.018841028213501,0.5799999833106995
51,0.997577965259552,0.5893750190734863,0.9940845966339111,0.5831249952316284
52,0.9816172122955322,0.6100000143051147,1.0052012205123901,0.590624988079071
53,0.9913239479064941,0.5931249856948853,1.0230600833892822,0.5768749713897705
54,1.003190040588379,0.596875011920929,1.0029577016830444,0.5774999856948853
55,0.9781504273414612,0.6050000190734863,0.9936667680740356,0.59375
56,0.9750375151634216,0.6150000095367432,1.016129493713379,0.5743749737739563
57,0.9694017171859741,0.6181250214576721,1.0046467781066895,0.5818750262260437
58,0.9765933752059937,0.596875011920929,0.9960559010505676,0.590624988079071
59,0.9960367679595947,0.5956249833106995,0.9999403357505798,0.590624988079071
60,0.9760610461235046,0.6087499856948853,0.9986681342124939,0.5837500095367432
61,0.9593747854232788,0.6156250238418579,1.0323362350463867,0.5649999976158142
62,0.9788053035736084,0.6018750071525574,1.0052578449249268,0.5824999809265137
63,1.0124425888061523,0.5987499952316284,1.0156433582305908,0.5774999856948853
64,0.9738783240318298,0.6075000166893005,1.0200679302215576,0.5618749856948853
65,0.9838191270828247,0.6031249761581421,1.0215377807617188,0.5687500238418579
66,1.0059760808944702,0.5881249904632568,0.9992519617080688,0.5806249976158142
67,0.9902746081352234,0.6018750071525574,1.0226951837539673,0.5687500238418579
68,0.9745677709579468,0.6187499761581421,0.9912010431289673,0.5950000286102295
69,0.99517422914505,0.6100000143051147,1.005689263343811,0.5824999809265137
70,0.9900837540626526,0.6068750023841858,1.0133471488952637,0.5724999904632568
71,0.9978136420249939,0.5899999737739563,1.0139470100402832,0.5849999785423279
72,0.9984646439552307,0.6000000238418579,1.0225160121917725,0.5768749713897705
73,0.9858961701393127,0.6131250262260437,0.99497389793396,0.5912500023841858
74,0.9682608842849731,0.6106250286102295,1.0084795951843262,0.5793750286102295
75,0.9891514778137207,0.6006249785423279,1.001468539237976,0.5924999713897705
76,0.9939283132553101,0.6037499904632568,1.0238810777664185,0.578125
77,0.9898738265037537,0.5874999761581421,1.0051101446151733,0.5756250023841858
78,0.9736018180847168,0.6200000047683716,1.009147047996521,0.5868750214576721
79,0.9985198974609375,0.5981249809265137,1.007542371749878,0.5737500190734863
80,1.0122932195663452,0.5962499976158142,0.9984431266784668,0.5887500047683716
81,0.9921278953552246,0.5987499952316284,1.0110725164413452,0.5693749785423279
82,0.9728735089302063,0.6162499785423279,1.022253155708313,0.5687500238418579
83,0.9855411052703857,0.5931249856948853,1.0131032466888428,0.5756250023841858
84,0.9417517781257629,0.6306250095367432,1.004538893699646,0.5806249976158142
85,0.9554122090339661,0.6237499713897705,1.0029785633087158,0.5874999761581421
86,0.9953106045722961,0.5956249833106995,0.9937820434570312,0.5862500071525574
87,0.9815771579742432,0.606249988079071,1.0065301656723022,0.5793750286102295
88,0.9754766225814819,0.6175000071525574,1.0087963342666626,0.5862500071525574
89,0.990610659122467,0.6118749976158142,1.0218585729599,0.5668749809265137
90,0.9666314125061035,0.6268749833106995,1.0228474140167236,0.5743749737739563
91,1.004711627960205,0.5918750166893005,1.0154354572296143,0.5712500214576721
92,0.9583321213722229,0.6156250238418579,1.0061943531036377,0.581250011920929
93,0.9974654316902161,0.6000000238418579,0.993954062461853,0.5831249952316284
94,0.9936457872390747,0.6075000166893005,1.010040283203125,0.5756250023841858
95,1.019906997680664,0.5943750143051147,1.0031148195266724,0.5943750143051147
96,0.9883860945701599,0.5981249809265137,0.9903343319892883,0.5924999713897705
97,0.9868625402450562,0.5893750190734863,0.9865049719810486,0.5893750190734863
98,0.9968287944793701,0.5943750143051147,1.0028256177902222,0.581250011920929
99,0.9912219047546387,0.5962499976158142,1.0148189067840576,0.5774999856948853
100,0.9787656664848328,0.6118749976158142,0.9928795695304871,0.59375
101,0.962954044342041,0.6212499737739563,1.0062938928604126,0.5768749713897705
102,0.9995487928390503,0.5950000286102295,1.0199341773986816,0.581250011920929
103,0.9993994832038879,0.5981249809265137,0.9991951584815979,0.5881249904632568
104,0.9747380018234253,0.6081249713897705,1.0338330268859863,0.581250011920929
105,0.978661060333252,0.6037499904632568,0.9850867986679077,0.5837500095367432
106,1.0011974573135376,0.5931249856948853,0.9994595050811768,0.5956249833106995
107,0.9712069034576416,0.6137499809265137,1.0126689672470093,0.5787500143051147
108,0.982644259929657,0.6006249785423279,0.9917014837265015,0.5975000262260437
109,0.9474217295646667,0.6262500286102295,1.0168975591659546,0.5787500143051147
110,0.9859620928764343,0.6168749928474426,1.0099962949752808,0.5849999785423279
111,0.991285502910614,0.5962499976158142,0.9944882392883301,0.5893750190734863
112,0.9762920141220093,0.606249988079071,1.004054307937622,0.5912500023841858
113,1.0068567991256714,0.5831249952316284,0.9895651936531067,0.5799999833106995
114,0.9754624962806702,0.6075000166893005,1.0277607440948486,0.5625
115,0.9926348924636841,0.6025000214576721,0.9878538250923157,0.5843750238418579
116,1.0099520683288574,0.5881249904632568,0.997792661190033,0.5762500166893005
117,0.9860091209411621,0.6000000238418579,1.0072330236434937,0.5806249976158142
118,0.9854221343994141,0.6025000214576721,1.017248272895813,0.5737500190734863
119,0.9825749397277832,0.6000000238418579,1.0065854787826538,0.5787500143051147
120,0.9760318994522095,0.6112499833106995,0.9885357022285461,0.6031249761581421
121,0.9908311367034912,0.5918750166893005,0.9896414279937744,0.596875011920929
122,0.9674562215805054,0.6081249713897705,0.9938561320304871,0.5831249952316284
123,0.978039562702179,0.6181250214576721,1.002034068107605,0.5874999761581421
124,1.0090595483779907,0.5868750214576721,0.9895504713058472,0.5881249904632568
125,1.0035895109176636,0.5849999785423279,1.0022457838058472,0.578125
126,1.0012234449386597,0.6000000238418579,1.0164707899093628,0.5837500095367432
127,1.0009565353393555,0.5918750166893005,0.9901897311210632,0.5849999785423279
128,0.9811352491378784,0.6106250286102295,0.9975606799125671,0.5943750143051147
129,0.9929167032241821,0.5987499952316284,1.0029209852218628,0.5862500071525574
130,0.9902829527854919,0.6056249737739563,0.9983387589454651,0.5887500047683716
131,1.0023423433303833,0.5893750190734863,0.9954298138618469,0.5793750286102295
132,1.0133788585662842,0.5831249952316284,1.014344573020935,0.581250011920929
133,0.9966572523117065,0.6081249713897705,0.9952022433280945,0.5874999761581421
134,1.0035053491592407,0.590624988079071,0.9975491166114807,0.5943750143051147
135,0.9817332625389099,0.6050000190734863,0.987181544303894,0.5975000262260437
136,1.0141692161560059,0.5887500047683716,1.011017084121704,0.5824999809265137
137,0.9768502712249756,0.6112499833106995,0.9959589242935181,0.5881249904632568
138,0.9777810573577881,0.6112499833106995,0.9993571639060974,0.5818750262260437
139,0.9960103034973145,0.5950000286102295,1.0119980573654175,0.5918750166893005
140,0.9863964319229126,0.6050000190734863,1.001491904258728,0.5881249904632568
141,0.9972479939460754,0.606249988079071,1.000000238418579,0.5893750190734863
142,0.9937660098075867,0.6043750047683716,1.0059318542480469,0.5862500071525574
143,0.9819263219833374,0.6043750047683716,1.015934705734253,0.5887500047683716
144,0.9879809617996216,0.5993750095367432,1.009450078010559,0.5856249928474426
145,0.941342830657959,0.6262500286102295,0.9832537174224854,0.6000000238418579
146,1.0287152528762817,0.574999988079071,0.9909902215003967,0.5981249809265137
147,0.9844691753387451,0.6231250166893005,1.0139799118041992,0.5737500190734863
148,1.0070443153381348,0.5849999785423279,1.0051833391189575,0.5931249856948853
149,0.9670369029045105,0.6206250190734863,0.9808259010314941,0.5893750190734863
150,1.0009357929229736,0.5956249833106995,1.0235977172851562,0.5831249952316284
151,0.9920717477798462,0.6037499904632568,1.0012755393981934,0.5824999809265137
152,0.9641110897064209,0.6037499904632568,1.0191067457199097,0.5762500166893005
153,1.0030453205108643,0.5950000286102295,1.022142767906189,0.5718749761581421
154,0.9798951745033264,0.6012499928474426,1.0085598230361938,0.578125
155,1.000550389289856,0.5912500023841858,1.0117449760437012,0.5712500214576721
156,0.9765475392341614,0.6068750023841858,1.0084164142608643,0.5799999833106995
157,0.9595411419868469,0.6231250166893005,1.0251659154891968,0.5756250023841858
158,0.998201847076416,0.5918750166893005,1.025068759918213,0.574999988079071
159,0.9951964616775513,0.6068750023841858,1.016435146331787,0.574999988079071
160,0.9898431897163391,0.5956249833106995,1.028834342956543,0.5662500262260437
161,0.9577432870864868,0.6143749952316284,0.9987490177154541,0.581250011920929
162,0.9725850820541382,0.6106250286102295,0.9978926181793213,0.5787500143051147
163,0.9898791313171387,0.6050000190734863,1.0023908615112305,0.5862500071525574
164,0.9852008819580078,0.5981249809265137,0.9767808318138123,0.59375
165,0.983595609664917,0.6075000166893005,1.0008131265640259,0.5887500047683716
166,1.0017025470733643,0.5856249928474426,1.013967752456665,0.5774999856948853
167,0.9831332564353943,0.6037499904632568,1.0043845176696777,0.5868750214576721
168,1.016180157661438,0.5831249952316284,1.022453784942627,0.5743749737739563
169,1.0257115364074707,0.5818750262260437,1.0076000690460205,0.5824999809265137
170,0.9745988249778748,0.6081249713897705,1.0067402124404907,0.5868750214576721
171,0.998872697353363,0.6000000238418579,1.0059897899627686,0.5768749713897705
172,0.9707303047180176,0.6137499809265137,1.0051507949829102,0.5806249976158142
173,0.9814409613609314,0.6043750047683716,1.0233455896377563,0.5787500143051147
174,0.9760026335716248,0.6025000214576721,0.9929248690605164,0.5831249952316284
175,1.001123309135437,0.5956249833106995,1.0163869857788086,0.5774999856948853
176,0.9980223774909973,0.5943750143051147,1.0124197006225586,0.5712500214576721
177,0.9724153280258179,0.6006249785423279,0.9913814067840576,0.5799999833106995
178,0.9938628673553467,0.6012499928474426,0.9866973757743835,0.5862500071525574
179,1.0359091758728027,0.5756250023841858,0.9993109107017517,0.5881249904632568
180,1.0035747289657593,0.6025000214576721,1.0161540508270264,0.5712500214576721
181,0.9935559034347534,0.6006249785423279,1.0074883699417114,0.5806249976158142
182,0.9624819755554199,0.6181250214576721,1.008806586265564,0.5843750238418579
183,0.9828049540519714,0.6018750071525574,1.0183939933776855,0.5737500190734863
184,1.0041747093200684,0.5950000286102295,1.0156229734420776,0.5762500166893005
185,0.9897840023040771,0.5918750166893005,1.0026355981826782,0.5868750214576721
186,0.991730272769928,0.590624988079071,1.019900918006897,0.5724999904632568
187,0.9864891767501831,0.596875011920929,1.0100996494293213,0.5793750286102295
188,0.986359179019928,0.6087499856948853,1.006579875946045,0.5831249952316284
189,0.9734359979629517,0.6075000166893005,0.9811592102050781,0.5993750095367432
190,1.0024945735931396,0.5931249856948853,1.0196037292480469,0.5731250047683716
191,1.0000195503234863,0.6043750047683716,1.0133956670761108,0.5737500190734863
192,0.9825479388237,0.6081249713897705,1.0260316133499146,0.5762500166893005
193,0.9725806713104248,0.6018750071525574,0.9992820620536804,0.5862500071525574
194,0.9915683269500732,0.5918750166893005,0.989409327507019,0.5962499976158142
195,1.0165897607803345,0.5862500071525574,1.0146691799163818,0.5762500166893005
196,0.992702305316925,0.5975000262260437,1.0006517171859741,0.5856249928474426
197,0.9665634632110596,0.6100000143051147,1.0130088329315186,0.581250011920929
198,1.002270221710205,0.596875011920929,0.9929842948913574,0.5924999713897705
199,0.9862095713615417,0.5899999737739563,0.9995167255401611,0.6031249761581421
200,1.0073074102401733,0.5956249833106995,0.9899721741676331,0.5881249904632568
201,0.9789937734603882,0.6075000166893005,0.9902440905570984,0.5868750214576721
202,0.9865800738334656,0.6156250238418579,0.9900790452957153,0.5831249952316284
203,0.9913184642791748,0.6118749976158142,1.0181492567062378,0.581250011920929
204,0.9723616242408752,0.6168749928474426,0.9980267286300659,0.5887500047683716
205,0.9916906952857971,0.6075000166893005,1.0189658403396606,0.5743749737739563
206,1.0052714347839355,0.5993750095367432,0.995542049407959,0.5899999737739563
207,0.9812014102935791,0.6025000214576721,0.9953586459159851,0.5887500047683716
208,1.0006906986236572,0.5874999761581421,1.0207839012145996,0.5724999904632568
209,0.9532187581062317,0.6262500286102295,1.016802191734314,0.5843750238418579
210,1.0023263692855835,0.5956249833106995,0.9996763467788696,0.5724999904632568
211,0.942838728427887,0.6237499713897705,1.0063344240188599,0.5806249976158142
212,0.9682531952857971,0.6256250143051147,1.0209614038467407,0.5774999856948853
213,0.9924150109291077,0.596875011920929,0.9970515370368958,0.5831249952316284
214,0.9792076349258423,0.6043750047683716,0.9968469142913818,0.5849999785423279
215,0.984652042388916,0.6000000238418579,0.9994466304779053,0.5849999785423279
216,0.9790775179862976,0.6012499928474426,0.9921922087669373,0.5887500047683716
217,0.9678213000297546,0.6106250286102295,1.0026371479034424,0.5893750190734863
218,1.0163837671279907,0.5831249952316284,0.9868972301483154,0.6006249785423279
219,0.9647718071937561,0.6187499761581421,1.005538821220398,0.5806249976158142
220,0.9734948873519897,0.5950000286102295,1.022721290588379,0.5793750286102295
221,0.9892616868019104,0.6012499928474426,1.0123257637023926,0.5718749761581421
222,0.9665983319282532,0.6075000166893005,1.0188502073287964,0.5768749713897705
223,0.9866737127304077,0.5956249833106995,1.0127812623977661,0.5756250023841858
224,0.9669838547706604,0.621874988079071,0.9944719672203064,0.5950000286102295
225,0.9715080857276917,0.6237499713897705,0.9931421875953674,0.5862500071525574
226,0.9870905876159668,0.6018750071525574,1.0174332857131958,0.5668749809265137
227,0.997856855392456,0.6006249785423279,0.9954172372817993,0.5924999713897705
228,0.9878160953521729,0.6000000238418579,0.9988105893135071,0.5893750190734863
229,1.0112260580062866,0.590624988079071,1.0089820623397827,0.5787500143051147
230,1.0067992210388184,0.5874999761581421,1.0024995803833008,0.5849999785423279
231,1.0027467012405396,0.5931249856948853,1.0011380910873413,0.578125
232,1.0009881258010864,0.5899999737739563,1.0096226930618286,0.5856249928474426
233,0.9982618689537048,0.5837500095367432,1.0086026191711426,0.5831249952316284
234,1.007931113243103,0.5987499952316284,0.9862470030784607,0.5943750143051147
235,1.0035759210586548,0.5918750166893005,1.013280987739563,0.5737500190734863
236,0.9831870794296265,0.5981249809265137,1.0309587717056274,0.5649999976158142
237,1.0031036138534546,0.5893750190734863,1.0207828283309937,0.5693749785423279
238,0.9989855289459229,0.5981249809265137,1.0051838159561157,0.5843750238418579
239,0.9782745838165283,0.6043750047683716,1.0321381092071533,0.5618749856948853
240,0.9764178395271301,0.609375,1.0101501941680908,0.5831249952316284
241,0.9907212853431702,0.5956249833106995,1.000396966934204,0.5818750262260437
242,1.0063163042068481,0.5924999713897705,1.0134313106536865,0.5762500166893005
243,0.9858471751213074,0.5956249833106995,0.9926009178161621,0.5874999761581421
244,0.9942365884780884,0.5987499952316284,1.0125932693481445,0.5756250023841858
245,0.9598871469497681,0.6212499737739563,1.0148011445999146,0.5862500071525574
246,1.006615161895752,0.5899999737739563,1.0281412601470947,0.5712500214576721
247,0.9780208468437195,0.6043750047683716,0.9904127717018127,0.5837500095367432
248,0.9768885970115662,0.6112499833106995,1.0092743635177612,0.5893750190734863
249,1.0032564401626587,0.590624988079071,1.0085927248001099,0.5831249952316284
250,1.0062698125839233,0.5837500095367432,1.0292534828186035,0.5737500190734863
251,0.9934255480766296,0.6012499928474426,1.0015724897384644,0.5893750190734863
252,0.9900948405265808,0.6050000190734863,0.9939558506011963,0.5868750214576721
253,0.990170419216156,0.6031249761581421,0.983527421951294,0.5975000262260437
254,1.0136685371398926,0.5881249904632568,0.9994099140167236,0.5831249952316284
255,0.9703963994979858,0.6175000071525574,1.0093010663986206,0.5849999785423279
256,0.997168779373169,0.606249988079071,1.0129297971725464,0.578125
257,0.9885030388832092,0.5887500047683716,1.0062332153320312,0.5818750262260437
258,0.9969967603683472,0.6000000238418579,1.0002254247665405,0.5824999809265137
259,1.0083398818969727,0.590624988079071,1.0226922035217285,0.5718749761581421
260,0.9975760579109192,0.5881249904632568,1.0234997272491455,0.5768749713897705
261,0.9990163445472717,0.5962499976158142,1.0057820081710815,0.5862500071525574
262,0.9943128228187561,0.6025000214576721,0.9843193888664246,0.5912500023841858
263,0.9832823872566223,0.6081249713897705,1.035363793373108,0.5668749809265137
264,0.9796611666679382,0.6118749976158142,1.012209415435791,0.5712500214576721
265,0.9791905879974365,0.6106250286102295,0.9975324869155884,0.5824999809265137
266,0.9956913590431213,0.5931249856948853,1.006301760673523,0.5824999809265137
267,0.9851404428482056,0.6081249713897705,1.033135175704956,0.5649999976158142
268,0.9789655804634094,0.609375,0.9947155714035034,0.5899999737739563
269,0.9940943121910095,0.5956249833106995,1.0018893480300903,0.5874999761581421
270,0.989756166934967,0.6068750023841858,0.998156726360321,0.5793750286102295
271,1.0163533687591553,0.5881249904632568,1.0095926523208618,0.5793750286102295
272,0.9862610101699829,0.6087499856948853,1.0944477319717407,0.5375000238418579
273,0.9783181548118591,0.612500011920929,1.0035030841827393,0.5818750262260437
274,0.9861191511154175,0.5993750095367432,1.0152583122253418,0.5793750286102295
275,1.0002385377883911,0.5893750190734863,0.9922791123390198,0.5943750143051147
276,0.959879457950592,0.6225000023841858,1.026797890663147,0.5674999952316284
277,1.0065886974334717,0.5881249904632568,0.9942755699157715,0.5793750286102295
278,0.974639356136322,0.6006249785423279,1.017027497291565,0.5774999856948853
279,0.9826133847236633,0.5987499952316284,0.9948194026947021,0.5862500071525574
280,0.9754170179367065,0.6156250238418579,0.9983024001121521,0.5874999761581421
281,0.9992445111274719,0.6018750071525574,1.014183521270752,0.5893750190734863
282,0.9912564158439636,0.5987499952316284,1.0146324634552002,0.5787500143051147
283,0.9828291535377502,0.5887500047683716,1.0105385780334473,0.5837500095367432
284,0.9718391299247742,0.6075000166893005,1.0037850141525269,0.5799999833106995
285,0.9634753465652466,0.5993750095367432,1.0001453161239624,0.5874999761581421
286,1.0055750608444214,0.5950000286102295,1.003241777420044,0.5899999737739563
287,1.0103622674942017,0.59375,1.0132919549942017,0.5756250023841858
288,0.9765804409980774,0.5987499952316284,1.0010149478912354,0.581250011920929
289,1.0133711099624634,0.596875011920929,0.9800282120704651,0.59375
290,0.9986730217933655,0.5893750190734863,0.9930185079574585,0.5862500071525574
291,0.9748104810714722,0.6050000190734863,1.0107829570770264,0.5837500095367432
292,0.9959139823913574,0.59375,1.006007432937622,0.5874999761581421
293,0.9538748264312744,0.6268749833106995,1.0067635774612427,0.5843750238418579
294,1.0078214406967163,0.5856249928474426,1.0217536687850952,0.5706250071525574
295,1.0143966674804688,0.5956249833106995,1.120307207107544,0.3087500035762787
296,1.0140528678894043,0.5862500071525574,1.000280499458313,0.5849999785423279
297,0.9676597714424133,0.609375,1.033122181892395,0.5718749761581421
298,0.9839666485786438,0.6006249785423279,1.0092540979385376,0.581250011920929
299,0.9669063091278076,0.6056249737739563,1.0197570323944092,0.5793750286102295
300,0.9885581731796265,0.5918750166893005,1.0051766633987427,0.5731250047683716
301,0.9944871664047241,0.5981249809265137,1.0210217237472534,0.581250011920929
302,0.9792553186416626,0.6037499904632568,1.023266315460205,0.5731250047683716
303,0.9728665947914124,0.5962499976158142,0.9995316863059998,0.5893750190734863
304,0.9685355424880981,0.6100000143051147,1.0001096725463867,0.5874999761581421
305,0.9755594730377197,0.5962499976158142,1.0177557468414307,0.574999988079071
306,0.9936607480049133,0.5881249904632568,0.9895599484443665,0.59375
307,0.9863990545272827,0.606249988079071,1.0060633420944214,0.5806249976158142
308,0.97137850522995,0.6181250214576721,1.0050138235092163,0.5918750166893005
309,0.9616636633872986,0.612500011920929,1.0202780961990356,0.5737500190734863
310,1.0068022012710571,0.590624988079071,1.0088976621627808,0.5774999856948853
311,0.9531067609786987,0.6231250166893005,1.0017906427383423,0.5893750190734863
312,0.9786959290504456,0.612500011920929,0.98980313539505,0.5993750095367432
313,0.9930440783500671,0.5975000262260437,1.0134282112121582,0.5881249904632568
314,0.9792242646217346,0.6006249785423279,1.0168787240982056,0.581250011920929
315,0.9866863489151001,0.5924999713897705,0.9831684827804565,0.5962499976158142
316,1.028403639793396,0.5806249976158142,0.993052065372467,0.5868750214576721
317,0.9890605807304382,0.6068750023841858,1.0217355489730835,0.5674999952316284
318,0.984383225440979,0.5899999737739563,1.002084493637085,0.5856249928474426
319,1.0235655307769775,0.5799999833106995,1.0096458196640015,0.5799999833106995
320,1.0004775524139404,0.5924999713897705,1.0290645360946655,0.5699999928474426
321,0.9866347312927246,0.6031249761581421,1.010280728340149,0.5768749713897705
322,1.003820776939392,0.5912500023841858,1.005103588104248,0.5824999809265137
323,1.008213758468628,0.5912500023841858,1.0057705640792847,0.581250011920929
324,0.9904206991195679,0.5975000262260437,1.0145745277404785,0.5762500166893005
325,0.9935195446014404,0.6012499928474426,1.015364170074463,0.578125
326,0.9919073581695557,0.6050000190734863,1.0028389692306519,0.5818750262260437
327,0.9822178483009338,0.609375,1.0166054964065552,0.5787500143051147
328,0.9962791204452515,0.6100000143051147,1.0249552726745605,0.5712500214576721
329,0.9816510081291199,0.5987499952316284,0.9850479364395142,0.5881249904632568
330,0.9597015380859375,0.6175000071525574,1.004285216331482,0.5931249856948853
331,0.9712115526199341,0.606249988079071,0.9756066203117371,0.596875011920929
332,0.9659777283668518,0.6068750023841858,1.0149142742156982,0.5799999833106995
333,0.9799731373786926,0.609375,0.9937556982040405,0.5862500071525574
334,0.9744216799736023,0.621874988079071,1.0074349641799927,0.5793750286102295
335,0.9777183532714844,0.609375,1.0095244646072388,0.5768749713897705
336,1.0192897319793701,0.5837500095367432,1.008100986480713,0.5768749713897705
337,0.9947024583816528,0.6118749976158142,1.0165199041366577,0.5849999785423279
338,0.974076509475708,0.6187499761581421,1.0054539442062378,0.5837500095367432
339,1.010670781135559,0.5843750238418579,0.984944224357605,0.5987499952316284
340,0.9900763630867004,0.5981249809265137,0.9985435605049133,0.5887500047683716
341,1.005448579788208,0.5881249904632568,0.9853050112724304,0.5893750190734863
342,0.9643164873123169,0.6181250214576721,1.0055257081985474,0.5762500166893005
343,0.9610868096351624,0.6162499785423279,1.0255109071731567,0.574999988079071
344,1.000190258026123,0.5962499976158142,1.0039187669754028,0.5849999785423279
345,0.980251669883728,0.609375,1.0136858224868774,0.5668749809265137
346,0.9783905744552612,0.6025000214576721,1.010082721710205,0.5699999928474426
347,0.9866878390312195,0.5962499976158142,1.0039414167404175,0.5843750238418579
348,0.975426435470581,0.6118749976158142,1.025503396987915,0.5699999928474426
349,1.0089060068130493,0.596875011920929,1.0011688470840454,0.590624988079071
350,0.9789976477622986,0.612500011920929,1.00419282913208,0.5762500166893005
351,1.019425630569458,0.5987499952316284,0.994473397731781,0.5881249904632568
352,0.9981406927108765,0.6081249713897705,1.017208456993103,0.574999988079071
353,0.9627262353897095,0.6037499904632568,0.994301438331604,0.5862500071525574
354,0.994946300983429,0.5975000262260437,1.0007978677749634,0.5831249952316284
355,0.9656273126602173,0.606249988079071,1.0032284259796143,0.5787500143051147
356,0.9725089073181152,0.609375,1.0077179670333862,0.581250011920929
357,0.990078866481781,0.5931249856948853,1.0032685995101929,0.5893750190734863
358,0.9930261373519897,0.6000000238418579,0.9878970980644226,0.5943750143051147
359,0.9848667979240417,0.6075000166893005,1.0165139436721802,0.5712500214576721
360,1.0016547441482544,0.5793750286102295,1.0064945220947266,0.5799999833106995
361,1.0155837535858154,0.5856249928474426,1.019386649131775,0.5787500143051147
362,0.9940217733383179,0.6056249737739563,1.0053250789642334,0.5874999761581421
363,0.982360303401947,0.5975000262260437,1.0117648839950562,0.5818750262260437
364,0.9741024971008301,0.6106250286102295,1.0243465900421143,0.5756250023841858
365,0.9696379899978638,0.5924999713897705,0.9965915679931641,0.5762500166893005
366,1.0083318948745728,0.590624988079071,1.0049307346343994,0.5862500071525574
367,0.9898978471755981,0.6000000238418579,1.0235872268676758,0.5687500238418579
368,0.9828730225563049,0.606249988079071,0.9886960387229919,0.5981249809265137
369,0.975578784942627,0.6068750023841858,1.0085023641586304,0.5893750190734863
370,0.9958842396736145,0.6012499928474426,1.008967399597168,0.5843750238418579
371,0.9896098971366882,0.6075000166893005,1.0068604946136475,0.5756250023841858
372,0.9968436360359192,0.5931249856948853,1.009501338005066,0.5806249976158142
373,0.980146586894989,0.5962499976158142,1.0023995637893677,0.5818750262260437
374,0.9652017951011658,0.628125011920929,0.989773690700531,0.590624988079071
375,1.000125527381897,0.5899999737739563,0.9914445281028748,0.581250011920929
376,1.012558102607727,0.5881249904632568,1.0084898471832275,0.5699999928474426
377,0.9573196172714233,0.6268749833106995,0.9982336163520813,0.5837500095367432
378,0.9849141836166382,0.6068750023841858,0.9882746934890747,0.59375
379,1.0072906017303467,0.6012499928474426,1.0051124095916748,0.5793750286102295
380,0.9857195019721985,0.6081249713897705,1.0146785974502563,0.5774999856948853
381,0.9961304664611816,0.6006249785423279,1.0161657333374023,0.5693749785423279
382,0.9814069271087646,0.606249988079071,0.9990484714508057,0.578125
383,1.0099687576293945,0.5899999737739563,1.0030276775360107,0.5837500095367432
384,1.014389157295227,0.596875011920929,1.009311318397522,0.5924999713897705
385,0.9781124591827393,0.6112499833106995,1.0308972597122192,0.5774999856948853
386,1.001678228378296,0.5893750190734863,1.017836570739746,0.574999988079071
387,0.9718057513237,0.6056249737739563,1.0224319696426392,0.5718749761581421
388,0.954545259475708,0.6087499856948853,1.002203106880188,0.5874999761581421
389,0.9841355085372925,0.5956249833106995,1.0246714353561401,0.5756250023841858
390,0.9918926954269409,0.5931249856948853,1.022707462310791,0.565625011920929
391,0.9655751585960388,0.6168749928474426,1.0000072717666626,0.5837500095367432
392,0.9538194537162781,0.6212499737739563,0.9886764287948608,0.5912500023841858
393,1.0185283422470093,0.5706250071525574,1.0105863809585571,0.578125
394,0.9881446361541748,0.6031249761581421,1.0103559494018555,0.5862500071525574
395,0.977103054523468,0.6156250238418579,1.0041769742965698,0.5856249928474426
396,0.9849916100502014,0.6006249785423279,1.0005278587341309,0.590624988079071
397,1.0260646343231201,0.5924999713897705,1.0140892267227173,0.5912500023841858
398,1.0039814710617065,0.5981249809265137,0.9977501034736633,0.578125
399,0.9871240258216858,0.6031249761581421,0.9981879591941833,0.5881249904632568
400,1.0062392950057983,0.5806249976158142,1.012622594833374,0.5831249952316284
401,0.9859382510185242,0.5849999785423279,1.0083004236221313,0.5862500071525574
402,0.9843399524688721,0.6031249761581421,1.0053387880325317,0.5843750238418579
403,1.0029658079147339,0.5981249809265137,1.002801537513733,0.5806249976158142
404,0.9952168464660645,0.5887500047683716,1.0029016733169556,0.5899999737739563
405,0.9806727766990662,0.6037499904632568,0.9928772449493408,0.5831249952316284
406,1.0195719003677368,0.5849999785423279,0.9961244463920593,0.5824999809265137
407,1.0071077346801758,0.5874999761581421,1.0093172788619995,0.5756250023841858
408,0.9925526976585388,0.5993750095367432,0.9813477396965027,0.5981249809265137
409,1.0011388063430786,0.5918750166893005,0.9959889054298401,0.5824999809265137
410,0.9827926158905029,0.6068750023841858,1.0059521198272705,0.5881249904632568
411,0.9949833750724792,0.6081249713897705,1.0233259201049805,0.574999988079071
412,0.99652498960495,0.5899999737739563,1.0152008533477783,0.578125
413,0.9970812201499939,0.5931249856948853,1.0192621946334839,0.5824999809265137
414,0.989948034286499,0.596875011920929,1.0265721082687378,0.5699999928474426
415,0.99275803565979,0.6006249785423279,1.0013946294784546,0.5962499976158142
416,0.9926853775978088,0.6037499904632568,1.0045887231826782,0.5799999833106995
417,1.000197410583496,0.5843750238418579,0.9936921000480652,0.590624988079071
418,1.0129613876342773,0.5774999856948853,0.9855642914772034,0.5931249856948853
419,0.9983139038085938,0.6006249785423279,1.016859769821167,0.574999988079071
420,0.9950113892555237,0.5893750190734863,0.9929194450378418,0.5956249833106995
421,0.9951492547988892,0.5956249833106995,1.003401279449463,0.5912500023841858
422,0.9908542633056641,0.6075000166893005,1.0064657926559448,0.5787500143051147
423,0.9829938411712646,0.5950000286102295,0.99541836977005,0.5893750190734863
424,1.0015732049942017,0.5987499952316284,1.0007814168930054,0.5824999809265137
425,1.023603916168213,0.5924999713897705,0.9953138828277588,0.5862500071525574
426,0.991463303565979,0.5824999809265137,0.9896988868713379,0.59375
427,0.9580652117729187,0.6143749952316284,1.0258227586746216,0.5731250047683716
428,0.9959160685539246,0.5943750143051147,1.0272632837295532,0.5768749713897705
429,0.9704181551933289,0.6131250262260437,1.0151997804641724,0.574999988079071
430,0.9799038767814636,0.6031249761581421,1.0240126848220825,0.5706250071525574
431,0.9851532578468323,0.5987499952316284,1.006148099899292,0.5837500095367432
432,0.9882602691650391,0.5956249833106995,0.9971961975097656,0.5868750214576721
433,0.9707638025283813,0.6156250238418579,1.0202243328094482,0.5818750262260437
434,0.9747452735900879,0.6118749976158142,0.9860455989837646,0.5962499976158142
435,0.9597907066345215,0.6175000071525574,0.9958289265632629,0.5793750286102295
436,1.0140475034713745,0.5881249904632568,0.9734674692153931,0.6006249785423279
437,0.976321816444397,0.6162499785423279,1.0121808052062988,0.5831249952316284
438,1.0094507932662964,0.5943750143051147,0.9889556765556335,0.5831249952316284
439,0.978748083114624,0.6075000166893005,0.9956977963447571,0.5887500047683716
440,1.0278593301773071,0.5743749737739563,0.9970180988311768,0.5874999761581421
441,0.9973546862602234,0.6031249761581421,1.0241509675979614,0.5743749737739563
442,0.9808461666107178,0.6037499904632568,1.0373334884643555,0.5625
443,0.9791017770767212,0.6056249737739563,1.0220314264297485,0.5756250023841858
444,0.9968249797821045,0.5912500023841858,1.0063575506210327,0.5856249928474426
445,0.981546938419342,0.6031249761581421,1.0172275304794312,0.5743749737739563
446,1.0205223560333252,0.5893750190734863,0.9873289465904236,0.6018750071525574
447,0.9957915544509888,0.5931249856948853,1.001766324043274,0.5887500047683716
448,0.9934937953948975,0.606249988079071,0.9951446652412415,0.5993750095367432
449,0.9836792945861816,0.5874999761581421,0.9988635182380676,0.5918750166893005
450,1.023942470550537,0.5874999761581421,1.0064396858215332,0.5837500095367432
451,1.0021730661392212,0.5962499976158142,1.00303316116333,0.5887500047683716
452,0.9783744812011719,0.6118749976158142,0.9952784180641174,0.5912500023841858
453,0.9954898953437805,0.5981249809265137,0.988945722579956,0.5924999713897705
454,1.001359224319458,0.5912500023841858,1.011644721031189,0.5737500190734863
455,0.9718791246414185,0.6100000143051147,1.000975251197815,0.5824999809265137
456,0.9896223545074463,0.6031249761581421,1.0047074556350708,0.581250011920929
457,0.9788339734077454,0.6087499856948853,0.9960781931877136,0.5762500166893005
458,1.0052226781845093,0.5962499976158142,1.0072071552276611,0.5818750262260437
459,0.9874185919761658,0.606249988079071,1.000187635421753,0.5849999785423279
460,0.9821177124977112,0.606249988079071,0.9996707439422607,0.5912500023841858
461,0.9775437116622925,0.609375,1.0153632164001465,0.5799999833106995
462,0.9755917191505432,0.6112499833106995,0.9980946183204651,0.5862500071525574
463,1.0042496919631958,0.5868750214576721,1.025740385055542,0.5724999904632568
464,1.014797568321228,0.5975000262260437,1.0115735530853271,0.5799999833106995
465,1.0010384321212769,0.5787500143051147,0.9944725036621094,0.5931249856948853
466,1.001883625984192,0.5899999737739563,1.0135548114776611,0.5837500095367432
467,0.9879614114761353,0.6081249713897705,0.9940719604492188,0.5956249833106995
468,0.9767566919326782,0.6156250238418579,0.9884032607078552,0.5837500095367432
469,1.0063132047653198,0.5874999761581421,1.0026195049285889,0.5862500071525574
470,1.0002669095993042,0.5924999713897705,0.9942277669906616,0.59375
471,0.9917283058166504,0.6025000214576721,1.0087970495224,0.5793750286102295
472,0.9758307933807373,0.6143749952316284,1.013656497001648,0.5724999904632568
473,0.9847436547279358,0.6025000214576721,1.0073729753494263,0.5774999856948853
474,0.9851980805397034,0.6056249737739563,0.9848428964614868,0.5881249904632568
475,0.9581071734428406,0.6143749952316284,0.9890697598457336,0.5881249904632568
476,0.9685478806495667,0.6156250238418579,1.0050036907196045,0.5887500047683716
477,0.9907746315002441,0.5849999785423279,1.0078997611999512,0.5793750286102295
478,0.9966203570365906,0.5987499952316284,0.9945796132087708,0.5874999761581421
479,0.9890654683113098,0.6068750023841858,1.0048487186431885,0.5899999737739563
480,0.9886585474014282,0.5981249809265137,1.0159025192260742,0.5793750286102295
481,0.996825635433197,0.6043750047683716,1.0275384187698364,0.5674999952316284
482,0.999023973941803,0.5943750143051147,1.010185956954956,0.5843750238418579
483,0.9885152578353882,0.6056249737739563,0.9948210716247559,0.5881249904632568
484,0.9865660071372986,0.5975000262260437,0.9967803955078125,0.5843750238418579
485,0.9905765652656555,0.6050000190734863,1.016135811805725,0.5806249976158142
486,0.9894062876701355,0.596875011920929,1.0053409337997437,0.5874999761581421
487,1.0139987468719482,0.574999988079071,1.0151488780975342,0.5799999833106995
488,1.001542568206787,0.5956249833106995,1.0180803537368774,0.5862500071525574
489,1.0075078010559082,0.5849999785423279,1.0105843544006348,0.5699999928474426
490,1.0036758184432983,0.59375,0.9973775744438171,0.5881249904632568
491,0.9860069155693054,0.6068750023841858,1.030442237854004,0.5699999928474426
492,0.9934984445571899,0.6006249785423279,0.9992100596427917,0.5806249976158142
493,0.9922086596488953,0.6081249713897705,0.9966167211532593,0.59375
494,0.9853825569152832,0.6106250286102295,1.0164073705673218,0.5693749785423279
495,0.9720752239227295,0.6131250262260437,0.9915522933006287,0.5874999761581421
496,0.9753409624099731,0.6118749976158142,1.0172628164291382,0.5799999833106995
497,0.9837591648101807,0.6037499904632568,1.0114524364471436,0.5762500166893005
498,0.9840002655982971,0.6100000143051147,0.9843592047691345,0.5931249856948853
499,0.9742550849914551,0.6006249785423279,1.010245680809021,0.5787500143051147
500,1.0261902809143066,0.5787500143051147,0.9975062012672424,0.5787500143051147
501,1.0107662677764893,0.5924999713897705,0.9953798055648804,0.5856249928474426
502,0.9937362670898438,0.6031249761581421,1.0195934772491455,0.581250011920929
503,0.9913705587387085,0.6025000214576721,1.0219998359680176,0.5787500143051147
504,1.0002031326293945,0.5962499976158142,1.0159739255905151,0.5787500143051147
505,0.949323296546936,0.6168749928474426,1.0127170085906982,0.5756250023841858
506,0.9728857278823853,0.6000000238418579,0.999110996723175,0.5912500023841858
507,0.9778288006782532,0.6012499928474426,1.0024560689926147,0.5743749737739563
508,1.010524034500122,0.5868750214576721,1.0072672367095947,0.5756250023841858
509,1.005547285079956,0.5831249952316284,1.0126979351043701,0.5799999833106995
510,1.0042246580123901,0.596875011920929,0.9869961738586426,0.6018750071525574
511,0.9860925078392029,0.5899999737739563,0.9982605576515198,0.5874999761581421
512,1.0034483671188354,0.5931249856948853,1.0298829078674316,0.5668749809265137
513,0.9928072094917297,0.596875011920929,1.014757513999939,0.5756250023841858
514,0.9827678203582764,0.6031249761581421,1.0062147378921509,0.5818750262260437
515,0.9845028519630432,0.5887500047683716,1.0079423189163208,0.5806249976158142
516,0.9813663363456726,0.6150000095367432,1.016337275505066,0.5793750286102295
517,0.9796819090843201,0.6043750047683716,0.9963126182556152,0.5912500023841858
518,1.003716230392456,0.5899999737739563,1.0085327625274658,0.5762500166893005
519,0.9808674454689026,0.6050000190734863,1.0108474493026733,0.5737500190734863
520,1.0045968294143677,0.5924999713897705,1.0044264793395996,0.5787500143051147
521,0.9665896892547607,0.6150000095367432,1.011534571647644,0.5724999904632568
522,0.9733361005783081,0.6106250286102295,0.9958831071853638,0.581250011920929
523,0.9762721061706543,0.6056249737739563,1.0260000228881836,0.5706250071525574
524,0.9783717393875122,0.6106250286102295,0.9997408390045166,0.5856249928474426
525,0.9887662529945374,0.5981249809265137,1.0005865097045898,0.5837500095367432
526,0.9865107536315918,0.609375,0.9929662346839905,0.5950000286102295
527,0.9527483582496643,0.6200000047683716,1.00699782371521,0.5806249976158142
528,0.9909025430679321,0.5912500023841858,1.0219861268997192,0.5724999904632568
529,0.9789947271347046,0.6025000214576721,1.0203359127044678,0.5643749833106995
530,1.009406328201294,0.5837500095367432,1.0172631740570068,0.5699999928474426
531,1.0050199031829834,0.5893750190734863,1.0051884651184082,0.5818750262260437
532,0.9815582036972046,0.5956249833106995,0.9983931183815002,0.5856249928474426
533,0.9966311454772949,0.6006249785423279,0.9860478043556213,0.5975000262260437
534,0.9987308382987976,0.5950000286102295,1.0081053972244263,0.5806249976158142
535,0.988173246383667,0.5887500047683716,1.013764500617981,0.5731250047683716
536,0.9838709831237793,0.6025000214576721,1.0087504386901855,0.5818750262260437
537,0.9966455698013306,0.5924999713897705,0.9925588369369507,0.5793750286102295
538,1.0137025117874146,0.5893750190734863,1.0211833715438843,0.5756250023841858
539,0.9689708948135376,0.6150000095367432,1.0019456148147583,0.5924999713897705
540,0.9916630387306213,0.5975000262260437,1.012256383895874,0.5743749737739563
541,0.9621521234512329,0.6131250262260437,1.0159313678741455,0.581250011920929
542,0.9638127684593201,0.6181250214576721,0.9905245304107666,0.5943750143051147
543,0.9967278242111206,0.5887500047683716,1.0064091682434082,0.5856249928474426
544,1.0194923877716064,0.5868750214576721,1.03217613697052,0.5699999928474426
545,0.9675672650337219,0.6175000071525574,1.0067919492721558,0.5824999809265137
546,0.9927258491516113,0.5943750143051147,1.0171499252319336,0.5799999833106995
547,0.9589146971702576,0.609375,1.0183954238891602,0.5762500166893005
548,0.9808058142662048,0.609375,1.0000874996185303,0.5831249952316284
549,1.0126136541366577,0.5799999833106995,0.9862328171730042,0.5962499976158142
550,0.9600980281829834,0.6231250166893005,0.9934747219085693,0.5918750166893005
551,0.9705238342285156,0.6131250262260437,1.0100129842758179,0.574999988079071
552,0.9754859209060669,0.606249988079071,1.0152016878128052,0.5824999809265137
553,0.984812319278717,0.6043750047683716,1.0039857625961304,0.5806249976158142
554,0.9827572703361511,0.6025000214576721,0.9988588690757751,0.5874999761581421
555,1.0065758228302002,0.5943750143051147,1.0048704147338867,0.5799999833106995
556,1.0059772729873657,0.5993750095367432,0.9736521244049072,0.6081249713897705
557,0.9874160289764404,0.606249988079071,1.0146392583847046,0.5699999928474426
558,0.9948579668998718,0.6006249785423279,0.9972648024559021,0.5931249856948853
559,0.9960687756538391,0.5993750095367432,0.9914321899414062,0.5918750166893005
560,1.0039008855819702,0.5962499976158142,1.0260189771652222,0.5693749785423279
561,1.0106191635131836,0.5943750143051147,1.0097676515579224,0.5818750262260437
562,0.9938570261001587,0.6056249737739563,1.0037518739700317,0.5881249904632568
563,0.9733744859695435,0.6131250262260437,0.9990249872207642,0.5768749713897705
564,1.0236395597457886,0.5831249952316284,1.023382306098938,0.5774999856948853
565,0.9695562720298767,0.6075000166893005,1.0247019529342651,0.5662500262260437
566,0.9651488661766052,0.6075000166893005,1.0163490772247314,0.5793750286102295
567,0.9702260494232178,0.6118749976158142,1.0078206062316895,0.5818750262260437
568,0.9832573533058167,0.5950000286102295,1.034145474433899,0.5693749785423279
569,0.9931986331939697,0.6012499928474426,0.9924020171165466,0.5887500047683716
570,0.996471107006073,0.5931249856948853,0.993690013885498,0.5824999809265137
571,0.992789089679718,0.6050000190734863,1.0024192333221436,0.5837500095367432
572,0.9915705323219299,0.59375,1.0085407495498657,0.5787500143051147
573,0.9891529083251953,0.5918750166893005,1.018476128578186,0.5681250095367432
574,0.9994239211082458,0.5924999713897705,1.0266101360321045,0.5724999904632568
575,0.9829720854759216,0.6106250286102295,1.0106045007705688,0.5843750238418579
576,0.9912455081939697,0.596875011920929,1.0256037712097168,0.5737500190734863
577,0.9623750448226929,0.6150000095367432,1.0078054666519165,0.5799999833106995
578,1.0193496942520142,0.5818750262260437,1.008790373802185,0.5818750262260437
579,1.0069502592086792,0.609375,1.018414855003357,0.5743749737739563
580,0.985806941986084,0.5899999737739563,0.9895447492599487,0.5856249928474426
581,0.9722082614898682,0.612500011920929,1.012609601020813,0.5862500071525574
582,0.9695371985435486,0.6143749952316284,1.0147089958190918,0.5762500166893005
583,1.0067106485366821,0.6031249761581421,1.0055094957351685,0.5793750286102295
584,0.9967010021209717,0.5862500071525574,0.9976400136947632,0.5881249904632568
585,0.974100649356842,0.612500011920929,1.0193339586257935,0.5768749713897705
586,1.001999855041504,0.5874999761581421,0.9968596696853638,0.5924999713897705
587,0.9923291802406311,0.6043750047683716,1.0237501859664917,0.578125
588,0.9889302849769592,0.5993750095367432,1.0050220489501953,0.581250011920929
589,0.9982479214668274,0.5787500143051147,1.0120856761932373,0.5731250047683716
590,0.9847441911697388,0.6037499904632568,1.0093371868133545,0.5787500143051147
591,0.9828481078147888,0.6050000190734863,0.994884729385376,0.5918750166893005
592,0.9791867136955261,0.6106250286102295,1.0064650774002075,0.5856249928474426
593,0.9904979467391968,0.5950000286102295,1.0133280754089355,0.5837500095367432
594,0.9863218665122986,0.6037499904632568,0.9976130723953247,0.5843750238418579
595,0.9825978875160217,0.6031249761581421,0.9920187592506409,0.5843750238418579
596,0.9990749955177307,0.5924999713897705,1.002026081085205,0.5831249952316284
597,0.9773457050323486,0.6200000047683716,1.0087995529174805,0.5818750262260437
598,0.97414231300354,0.612500011920929,1.0064873695373535,0.5799999833106995
599,0.9856662750244141,0.5981249809265137,1.0241632461547852,0.5737500190734863
600,0.9644676446914673,0.6112499833106995,1.0030661821365356,0.5787500143051147
601,1.017499327659607,0.5918750166893005,1.0015673637390137,0.5837500095367432
602,0.9855427742004395,0.5993750095367432,0.9940346479415894,0.5774999856948853
603,1.014345645904541,0.5918750166893005,1.001267671585083,0.5881249904632568
604,0.9584421515464783,0.6243749856948853,1.0228567123413086,0.5756250023841858
605,0.9825617074966431,0.6050000190734863,1.007614016532898,0.5824999809265137
606,0.9885200262069702,0.5912500023841858,0.9985036253929138,0.5724999904632568
607,0.9936299920082092,0.5981249809265137,1.0148041248321533,0.578125
608,0.9839767217636108,0.6050000190734863,1.0039879083633423,0.5881249904632568
609,0.982723593711853,0.5956249833106995,1.0192373991012573,0.5793750286102295
610,1.0036540031433105,0.596875011920929,1.0046461820602417,0.5881249904632568
611,1.0284762382507324,0.5824999809265137,0.9910615682601929,0.5924999713897705
612,0.9859045147895813,0.6056249737739563,1.0052857398986816,0.581250011920929
613,0.9957698583602905,0.6018750071525574,0.9994144439697266,0.5899999737739563
614,0.9771841168403625,0.6037499904632568,0.9964788556098938,0.5793750286102295
615,0.9976051449775696,0.5893750190734863,1.013196587562561,0.5837500095367432
616,0.9847930669784546,0.596875011920929,1.0114041566848755,0.5731250047683716
617,1.0114095211029053,0.5843750238418579,1.0115643739700317,0.5793750286102295
618,0.9987008571624756,0.5756250023841858,1.0348119735717773,0.5737500190734863
619,0.9807417392730713,0.606249988079071,1.0027341842651367,0.581250011920929
620,0.9818117618560791,0.6087499856948853,1.0042970180511475,0.5806249976158142
621,0.9887470006942749,0.5962499976158142,1.0254076719284058,0.5768749713897705
622,0.9834117293357849,0.6081249713897705,1.0158758163452148,0.578125
623,0.9739853143692017,0.6031249761581421,1.00697922706604,0.5787500143051147
624,0.981101930141449,0.596875011920929,0.9834586977958679,0.5912500023841858
625,0.987480878829956,0.6025000214576721,0.9961495399475098,0.5918750166893005
626,0.9855664968490601,0.6056249737739563,1.0094953775405884,0.5824999809265137
627,0.9671807289123535,0.6237499713897705,0.9819115400314331,0.5975000262260437
628,0.9690942168235779,0.6212499737739563,1.0055361986160278,0.5881249904632568
629,0.986029863357544,0.6068750023841858,1.016556978225708,0.5699999928474426
630,0.9858993291854858,0.5924999713897705,1.0070937871932983,0.5806249976158142
631,0.9728026390075684,0.6112499833106995,0.9978796243667603,0.5962499976158142
632,0.9965774416923523,0.5856249928474426,0.9989664554595947,0.5862500071525574
633,0.9665807485580444,0.6100000143051147,1.0217918157577515,0.581250011920929
634,0.9684069752693176,0.6131250262260437,1.001452922821045,0.5774999856948853
635,0.9622786045074463,0.6187499761581421,1.0241552591323853,0.5737500190734863
636,0.9857327342033386,0.6025000214576721,1.0013000965118408,0.5874999761581421
637,0.9797970056533813,0.6081249713897705,0.985249400138855,0.5956249833106995
638,0.9736886620521545,0.6012499928474426,1.0101934671401978,0.574999988079071
639,0.9765356183052063,0.6068750023841858,1.0189933776855469,0.5762500166893005
640,0.9910234212875366,0.6031249761581421,1.0126034021377563,0.5743749737739563
641,0.9824938774108887,0.6075000166893005,1.0128803253173828,0.5718749761581421
642,0.9496259093284607,0.6200000047683716,1.0272620916366577,0.5687500238418579
643,0.9934868812561035,0.59375,1.0039341449737549,0.5924999713897705
644,1.0052131414413452,0.5943750143051147,1.0004056692123413,0.5831249952316284
645,1.0072190761566162,0.5924999713897705,0.9992757439613342,0.5893750190734863
646,0.9763545393943787,0.6100000143051147,1.0060234069824219,0.5799999833106995
647,0.9855976700782776,0.5943750143051147,1.0160659551620483,0.5787500143051147
648,0.9881436228752136,0.5993750095367432,1.0205076932907104,0.5762500166893005
649,0.9926355481147766,0.6050000190734863,1.0170609951019287,0.578125
650,0.9902218580245972,0.5918750166893005,1.0202373266220093,0.574999988079071
651,0.9626999497413635,0.6087499856948853,0.9976794719696045,0.5868750214576721
652,1.0037033557891846,0.5962499976158142,1.0273175239562988,0.5681250095367432
653,0.994687557220459,0.5975000262260437,1.0283282995224,0.5643749833106995
654,0.9802006483078003,0.596875011920929,0.9992403388023376,0.5849999785423279
655,1.0256599187850952,0.5756250023841858,1.0158164501190186,0.5762500166893005
656,0.9869049191474915,0.6056249737739563,1.0136836767196655,0.5787500143051147
657,0.9810817837715149,0.6112499833106995,0.9957641363143921,0.5893750190734863
658,0.9716500639915466,0.6106250286102295,0.9824607372283936,0.5918750166893005
659,0.9776122570037842,0.5975000262260437,1.0139721632003784,0.5756250023841858
660,0.9810241460800171,0.6081249713897705,1.0165176391601562,0.5799999833106995
661,0.9605385661125183,0.6212499737739563,0.9981100559234619,0.5893750190734863
662,0.9829371571540833,0.609375,1.00181245803833,0.5931249856948853
663,0.9942686557769775,0.5912500023841858,0.9986354112625122,0.5887500047683716
664,1.009202480316162,0.5912500023841858,1.004642367362976,0.5824999809265137
665,0.9827408790588379,0.612500011920929,0.9916452765464783,0.590624988079071
666,1.0031838417053223,0.5931249856948853,1.0221999883651733,0.578125
667,1.0194724798202515,0.5975000262260437,1.0109256505966187,0.581250011920929
668,0.9830556511878967,0.6006249785423279,1.0085488557815552,0.5799999833106995
669,1.005622148513794,0.5931249856948853,1.0084751844406128,0.5799999833106995
670,0.9874864816665649,0.5962499976158142,1.003920555114746,0.5799999833106995
671,0.9863617420196533,0.6043750047683716,0.9923087954521179,0.5862500071525574
672,0.983662486076355,0.6025000214576721,0.99788498878479,0.5899999737739563
673,1.0017510652542114,0.5774999856948853,1.0038830041885376,0.5774999856948853
674,0.9833189249038696,0.6000000238418579,0.997723400592804,0.5899999737739563
675,0.9697909355163574,0.6143749952316284,1.0272046327590942,0.5699999928474426
676,0.9903109669685364,0.5893750190734863,1.0011156797409058,0.5849999785423279
677,0.9953802227973938,0.5956249833106995,1.0047271251678467,0.5706250071525574
678,0.9744871258735657,0.6100000143051147,1.009955883026123,0.581250011920929
679,0.981672465801239,0.6018750071525574,1.0217294692993164,0.5724999904632568
680,0.995917558670044,0.5943750143051147,1.0183415412902832,0.5731250047683716
681,0.9860747456550598,0.6025000214576721,1.0025607347488403,0.5818750262260437
682,0.9941604137420654,0.6000000238418579,1.0202749967575073,0.574999988079071
683,0.9706529974937439,0.6143749952316284,0.996707558631897,0.5837500095367432
684,0.9923586249351501,0.6087499856948853,1.0024768114089966,0.5824999809265137
685,0.9674028158187866,0.6056249737739563,1.0091043710708618,0.581250011920929
686,0.9950049519538879,0.5912500023841858,1.0194566249847412,0.5687500238418579
687,0.9826200604438782,0.5931249856948853,1.0158499479293823,0.5731250047683716
688,0.9979360103607178,0.6000000238418579,1.0055572986602783,0.578125
689,0.9863782525062561,0.6043750047683716,1.009204626083374,0.5806249976158142
690,0.9806963205337524,0.6000000238418579,1.0248098373413086,0.5793750286102295
691,0.9851149916648865,0.5956249833106995,1.0183340311050415,0.5762500166893005
692,0.9752752780914307,0.6168749928474426,1.0003057718276978,0.5912500023841858
693,0.9678004384040833,0.6112499833106995,1.0184202194213867,0.5787500143051147
694,0.9571813941001892,0.6181250214576721,1.0218318700790405,0.5743749737739563
695,0.9677644968032837,0.6037499904632568,1.0264875888824463,0.5731250047683716
696,0.9795957803726196,0.6043750047683716,1.0206927061080933,0.5693749785423279
697,1.0076178312301636,0.5956249833106995,0.9934195876121521,0.5931249856948853
698,1.0093579292297363,0.5837500095367432,0.9817964434623718,0.5924999713897705
699,0.9943159222602844,0.5962499976158142,1.0123355388641357,0.5718749761581421
700,0.9952114820480347,0.5931249856948853,1.0134544372558594,0.5818750262260437
701,1.0290488004684448,0.5843750238418579,1.0166422128677368,0.581250011920929
702,0.9919531345367432,0.5956249833106995,0.9990383982658386,0.5893750190734863
703,0.9731997847557068,0.6043750047683716,1.0067493915557861,0.5856249928474426
704,0.9758065938949585,0.6006249785423279,0.9932059645652771,0.5837500095367432
705,0.9826986789703369,0.6087499856948853,1.0035221576690674,0.5868750214576721
706,0.9888336658477783,0.6037499904632568,1.0293545722961426,0.5743749737739563
707,0.9863976836204529,0.5899999737739563,1.0034840106964111,0.5881249904632568
708,0.9891420602798462,0.596875011920929,0.9994838833808899,0.5950000286102295
709,1.0116889476776123,0.5756250023841858,0.9933964610099792,0.5893750190734863
710,0.9970124959945679,0.5943750143051147,1.0244861841201782,0.5724999904632568
711,0.990329384803772,0.5962499976158142,0.9978859424591064,0.5931249856948853
712,0.957913875579834,0.6137499809265137,1.0163414478302002,0.5712500214576721
713,1.0078976154327393,0.5987499952316284,1.0124502182006836,0.5706250071525574
714,0.9642897844314575,0.6143749952316284,1.011315941810608,0.5793750286102295
715,0.9921536445617676,0.6025000214576721,1.0268971920013428,0.5693749785423279
716,0.9759060144424438,0.5956249833106995,1.0153610706329346,0.5774999856948853
717,0.9885424971580505,0.6037499904632568,0.9916637539863586,0.5918750166893005
718,0.97208571434021,0.6206250190734863,1.0075583457946777,0.5874999761581421
719,1.027983546257019,0.5774999856948853,1.0020225048065186,0.5918750166893005
720,0.9898729920387268,0.6068750023841858,1.0158008337020874,0.5818750262260437
721,0.9887818098068237,0.6118749976158142,1.0117460489273071,0.581250011920929
722,0.9843775033950806,0.6043750047683716,1.0187081098556519,0.5674999952316284
723,0.9588940143585205,0.6043750047683716,1.0069574117660522,0.5787500143051147
724,0.9781516790390015,0.5924999713897705,1.00822114944458,0.5824999809265137
725,0.9902398586273193,0.5912500023841858,1.0036731958389282,0.5837500095367432
726,1.0060216188430786,0.5987499952316284,0.9847778081893921,0.6050000190734863
727,0.9670764803886414,0.6037499904632568,1.011723279953003,0.5881249904632568
728,0.9831118583679199,0.6118749976158142,0.99163419008255,0.590624988079071
729,0.9837332367897034,0.6106250286102295,1.0171077251434326,0.5756250023841858
730,0.977009117603302,0.6056249737739563,1.0252718925476074,0.5718749761581421
731,0.9818073511123657,0.6118749976158142,0.9848896265029907,0.5981249809265137
732,0.9950874447822571,0.6025000214576721,1.0121493339538574,0.5843750238418579
733,1.0100157260894775,0.5849999785423279,1.0061489343643188,0.5831249952316284
734,0.9947139024734497,0.6000000238418579,1.0106070041656494,0.5837500095367432
735,0.9894350171089172,0.590624988079071,1.0032060146331787,0.5856249928474426
736,0.9717486500740051,0.5987499952316284,1.0010963678359985,0.5793750286102295
737,0.9723780751228333,0.6137499809265137,1.0178277492523193,0.5731250047683716
738,0.9914378523826599,0.6081249713897705,0.993568480014801,0.5893750190734863
739,0.9929189085960388,0.5893750190734863,0.9889495372772217,0.5881249904632568
740,0.9842401742935181,0.606249988079071,1.0349435806274414,0.5649999976158142
741,0.9641897082328796,0.6131250262260437,0.9964658617973328,0.5912500023841858
742,0.9718111157417297,0.6100000143051147,1.004523515701294,0.5899999737739563
743,0.9744150638580322,0.6162499785423279,1.0068241357803345,0.5918750166893005
744,0.9755003452301025,0.6056249737739563,1.0090628862380981,0.5724999904632568
745,0.9951849579811096,0.6018750071525574,1.023877739906311,0.5743749737739563
746,0.9841762781143188,0.6037499904632568,1.0083861351013184,0.5862500071525574
747,0.9804283380508423,0.609375,1.0179554224014282,0.5712500214576721
748,0.991701066493988,0.6056249737739563,0.9900153279304504,0.6000000238418579
749,1.0058256387710571,0.5981249809265137,1.0194059610366821,0.5762500166893005
750,0.9812542796134949,0.6068750023841858,0.9963117837905884,0.590624988079071
751,0.9789139032363892,0.5993750095367432,0.9887139201164246,0.5950000286102295
752,0.9868276715278625,0.6050000190734863,1.0184831619262695,0.5756250023841858
753,0.9798534512519836,0.6081249713897705,1.0048713684082031,0.5818750262260437
754,0.974242091178894,0.6012499928474426,1.0256825685501099,0.5768749713897705
755,1.0208755731582642,0.5818750262260437,1.0041399002075195,0.5799999833106995
756,0.9698296189308167,0.6200000047683716,1.0340967178344727,0.5674999952316284
757,1.0293629169464111,0.5862500071525574,1.0186655521392822,0.5756250023841858
758,0.9728853702545166,0.6056249737739563,1.011496901512146,0.5824999809265137
759,0.9769484996795654,0.6131250262260437,1.0079182386398315,0.5868750214576721
760,0.9835655093193054,0.6150000095367432,1.0290915966033936,0.5718749761581421
761,0.978487491607666,0.6031249761581421,1.0012165307998657,0.581250011920929
762,0.9776159524917603,0.596875011920929,1.0271011590957642,0.5687500238418579
763,0.998818576335907,0.5912500023841858,1.027652382850647,0.5724999904632568
764,0.9327976107597351,0.643750011920929,1.0003167390823364,0.5912500023841858
765,0.9883741140365601,0.5981249809265137,1.0124751329421997,0.5793750286102295
766,0.9916815161705017,0.6087499856948853,0.9849905371665955,0.6000000238418579
767,0.9982125163078308,0.5956249833106995,1.0230188369750977,0.5643749833106995
768,0.9884997010231018,0.6075000166893005,1.014392375946045,0.5831249952316284
769,1.0015069246292114,0.5943750143051147,0.9916768670082092,0.5899999737739563
770,0.9859932661056519,0.5918750166893005,1.007367730140686,0.5887500047683716
771,0.982288658618927,0.606249988079071,1.0113025903701782,0.5787500143051147
772,0.985177755355835,0.606249988079071,1.0025337934494019,0.5831249952316284
773,0.9925184845924377,0.606249988079071,0.9971675872802734,0.581250011920929
774,0.9835712313652039,0.6056249737739563,0.9977502226829529,0.5862500071525574
775,0.9887510538101196,0.6012499928474426,1.025864601135254,0.578125
776,0.985413670539856,0.6000000238418579,0.997122049331665,0.5868750214576721
777,0.9802749752998352,0.6056249737739563,1.0066533088684082,0.5806249976158142
778,0.9894087314605713,0.5956249833106995,1.0000488758087158,0.5931249856948853
779,0.9948592185974121,0.5975000262260437,1.0233008861541748,0.5643749833106995
780,0.9932973384857178,0.59375,0.9967851042747498,0.5899999737739563
781,0.9932267665863037,0.6006249785423279,1.0025663375854492,0.5862500071525574
782,0.9866266846656799,0.6000000238418579,1.0007593631744385,0.5806249976158142
783,1.0005398988723755,0.5881249904632568,1.0035042762756348,0.5837500095367432
784,0.9818494915962219,0.606249988079071,0.987932562828064,0.5912500023841858
785,0.9934185743331909,0.6018750071525574,0.9852933287620544,0.5956249833106995
786,0.9921725392341614,0.596875011920929,1.0098164081573486,0.5774999856948853
787,1.0046107769012451,0.6018750071525574,1.013643741607666,0.5768749713897705
788,0.9989936947822571,0.5962499976158142,1.0340675115585327,0.5662500262260437
789,0.9819087982177734,0.6050000190734863,1.0259205102920532,0.5649999976158142
790,0.9848306179046631,0.6143749952316284,1.0141284465789795,0.5824999809265137
791,0.9909771084785461,0.6056249737739563,1.0196239948272705,0.5762500166893005
792,0.9770695567131042,0.6081249713897705,1.0075879096984863,0.5887500047683716
793,0.9852755665779114,0.6050000190734863,1.0013093948364258,0.5787500143051147
794,0.9767385125160217,0.606249988079071,1.0106475353240967,0.5743749737739563
795,0.9875599145889282,0.6018750071525574,1.0001933574676514,0.5774999856948853
796,1.017533302307129,0.5887500047683716,1.0008866786956787,0.5856249928474426
797,0.9920768141746521,0.5962499976158142,1.0222241878509521,0.5681250095367432
798,0.9861459136009216,0.6081249713897705,0.9926536083221436,0.5849999785423279
799,1.0102264881134033,0.5899999737739563,1.0139843225479126,0.5718749761581421
800,1.0029995441436768,0.5918750166893005,1.0118587017059326,0.578125
801,0.9945268034934998,0.6118749976158142,1.0128183364868164,0.5731250047683716
802,0.996547520160675,0.5987499952316284,1.018552541732788,0.5699999928474426
803,0.9962472319602966,0.59375,0.9970547556877136,0.5856249928474426
804,0.9606737494468689,0.6156250238418579,1.0102062225341797,0.5868750214576721
805,0.9830963015556335,0.5975000262260437,1.006549596786499,0.5793750286102295
806,0.9850296974182129,0.596875011920929,1.0140968561172485,0.578125
807,1.017409086227417,0.5862500071525574,1.0093327760696411,0.578125
808,0.9789144992828369,0.6068750023841858,1.0186312198638916,0.5837500095367432
809,0.9916921257972717,0.5981249809265137,1.0107834339141846,0.5762500166893005
810,1.0033717155456543,0.5943750143051147,0.985460638999939,0.59375
811,0.9953640103340149,0.6000000238418579,0.9967715740203857,0.5787500143051147
812,0.9766373634338379,0.6031249761581421,1.0033655166625977,0.5837500095367432
813,0.98222815990448,0.6018750071525574,1.0172325372695923,0.5743749737739563
814,0.9896423816680908,0.5950000286102295,1.014359712600708,0.5737500190734863
815,0.9716188311576843,0.6087499856948853,0.993131697177887,0.5912500023841858
816,0.9659217000007629,0.6075000166893005,1.0019270181655884,0.5774999856948853
817,0.9774054884910583,0.6068750023841858,1.006622552871704,0.5837500095367432
818,0.9837160706520081,0.5987499952316284,1.022110104560852,0.5762500166893005
819,0.9992849230766296,0.6100000143051147,1.003454566001892,0.5856249928474426
820,0.9785218238830566,0.5950000286102295,0.9996885657310486,0.5881249904632568
821,0.9825313091278076,0.6025000214576721,0.9968642592430115,0.5862500071525574
822,0.963868260383606,0.6212499737739563,1.016161322593689,0.574999988079071
823,0.9785324335098267,0.6100000143051147,1.016518235206604,0.574999988079071
824,1.0227878093719482,0.5774999856948853,1.0042012929916382,0.5975000262260437
825,0.9938308000564575,0.5981249809265137,0.9794591665267944,0.6031249761581421
826,0.9918593764305115,0.5931249856948853,1.0217442512512207,0.5756250023841858
827,0.9826662540435791,0.5931249856948853,1.0108025074005127,0.5831249952316284
828,0.9814119935035706,0.6087499856948853,1.024166226387024,0.5693749785423279
829,0.9923927783966064,0.5962499976158142,1.0129622220993042,0.5774999856948853
830,1.009498953819275,0.5993750095367432,1.0121229887008667,0.5756250023841858
831,1.0232630968093872,0.5868750214576721,1.0095329284667969,0.5693749785423279
832,1.0010298490524292,0.5912500023841858,1.007595419883728,0.5737500190734863
833,0.9823984503746033,0.6081249713897705,1.0359195470809937,0.5600000023841858
834,0.9741655588150024,0.6075000166893005,1.0287612676620483,0.5674999952316284
835,0.9681717753410339,0.6168749928474426,1.0248520374298096,0.5731250047683716
836,0.9817261695861816,0.5862500071525574,1.0024826526641846,0.5849999785423279
837,0.9780575633049011,0.6031249761581421,1.0030728578567505,0.5887500047683716
838,0.9650554060935974,0.6137499809265137,0.9831238389015198,0.5924999713897705
839,0.9971562027931213,0.5912500023841858,1.011139988899231,0.5868750214576721
840,0.9975237846374512,0.596875011920929,0.9899140000343323,0.5874999761581421
841,0.9838346838951111,0.6087499856948853,1.0126489400863647,0.5712500214576721
842,0.9665345549583435,0.6175000071525574,1.0010055303573608,0.581250011920929
843,0.9881002902984619,0.6043750047683716,0.998511791229248,0.5837500095367432
844,0.971950888633728,0.6075000166893005,1.0035583972930908,0.5706250071525574
845,1.0008184909820557,0.5993750095367432,1.016676902770996,0.5737500190734863
846,0.9963183403015137,0.59375,1.0051853656768799,0.590624988079071
847,0.991733729839325,0.5950000286102295,0.9999358654022217,0.5824999809265137
848,0.9793872237205505,0.6012499928474426,1.0012686252593994,0.5893750190734863
849,0.9574263691902161,0.6187499761581421,1.0222524404525757,0.5762500166893005
850,0.9853224754333496,0.5981249809265137,1.0255966186523438,0.5643749833106995
851,0.9817410111427307,0.6043750047683716,1.0275442600250244,0.5575000047683716
852,0.9977978467941284,0.5918750166893005,0.9860114455223083,0.5956249833106995
853,1.0079673528671265,0.5862500071525574,0.999747633934021,0.5881249904632568
854,0.980243980884552,0.6162499785423279,0.9948115348815918,0.5868750214576721
855,0.9911907911300659,0.5987499952316284,1.0352575778961182,0.565625011920929
856,1.002833604812622,0.5993750095367432,1.0180190801620483,0.5793750286102295
857,1.0067616701126099,0.5862500071525574,1.0258671045303345,0.5687500238418579
858,0.9884384274482727,0.6031249761581421,0.9929197430610657,0.5950000286102295
859,0.977333664894104,0.6143749952316284,1.0288678407669067,0.5699999928474426
860,0.9871848225593567,0.6056249737739563,1.0136646032333374,0.5762500166893005
861,0.9558075666427612,0.6118749976158142,1.0133451223373413,0.5731250047683716
862,0.9849032759666443,0.6043750047683716,1.0018686056137085,0.5818750262260437
863,1.017673134803772,0.5737500190734863,1.025456428527832,0.5631250143051147
864,0.9776718616485596,0.6181250214576721,1.0030994415283203,0.5868750214576721
865,1.018275260925293,0.5881249904632568,1.0027132034301758,0.5724999904632568
866,0.9922223687171936,0.5993750095367432,0.9889899492263794,0.5931249856948853
867,0.9639564752578735,0.6225000023841858,1.0281990766525269,0.5699999928474426
868,0.9890926480293274,0.5987499952316284,1.0035438537597656,0.5824999809265137
869,1.006422758102417,0.590624988079071,1.0112864971160889,0.5718749761581421
870,0.9777991771697998,0.6131250262260437,1.0157771110534668,0.5831249952316284
871,0.9816039800643921,0.6106250286102295,1.0220543146133423,0.5793750286102295
872,0.976198136806488,0.6068750023841858,1.002793312072754,0.5824999809265137
873,1.0034635066986084,0.6018750071525574,1.0019835233688354,0.5881249904632568
874,0.9829680919647217,0.5975000262260437,0.9893839955329895,0.59375
875,0.9732370972633362,0.6018750071525574,1.0104466676712036,0.5793750286102295
876,0.9965431690216064,0.5987499952316284,1.0110878944396973,0.5856249928474426
877,1.0036166906356812,0.5956249833106995,1.0114713907241821,0.581250011920929
878,0.9886103868484497,0.5962499976158142,0.9678441882133484,0.6031249761581421
879,0.9859871864318848,0.590624988079071,1.0275928974151611,0.5637500286102295
880,0.9784832000732422,0.5975000262260437,1.0037304162979126,0.5787500143051147
881,0.974347710609436,0.6018750071525574,1.0190234184265137,0.5787500143051147
882,0.9801519513130188,0.6056249737739563,1.018845796585083,0.5737500190734863
883,0.9796441793441772,0.6012499928474426,1.0025293827056885,0.5774999856948853
884,0.9926730990409851,0.6081249713897705,1.010626196861267,0.5712500214576721
885,0.9845578074455261,0.6068750023841858,1.0037657022476196,0.5824999809265137
886,0.981978178024292,0.6068750023841858,1.0153415203094482,0.5687500238418579
887,1.0006595849990845,0.5981249809265137,1.0056630373001099,0.5824999809265137
888,0.9585841298103333,0.6112499833106995,1.0159786939620972,0.578125
889,1.0013371706008911,0.5956249833106995,1.0259536504745483,0.5718749761581421
890,0.9997929930686951,0.5881249904632568,1.0047016143798828,0.5824999809265137
891,1.0007569789886475,0.5975000262260437,1.0207788944244385,0.5712500214576721
892,0.9733436703681946,0.6081249713897705,0.9953358173370361,0.5862500071525574
893,1.016254186630249,0.5762500166893005,0.9981951713562012,0.5874999761581421
894,0.9746726751327515,0.609375,1.0070074796676636,0.5831249952316284
895,0.9689129590988159,0.6206250190734863,0.9871672987937927,0.5981249809265137
896,1.0089551210403442,0.5874999761581421,1.0061720609664917,0.5787500143051147
897,0.9780827164649963,0.6025000214576721,1.0095314979553223,0.5687500238418579
898,0.9966942071914673,0.5881249904632568,1.011919379234314,0.5887500047683716
899,0.9642009735107422,0.6100000143051147,0.9980527758598328,0.5856249928474426
900,0.9908971190452576,0.6018750071525574,1.0277073383331299,0.5693749785423279
901,1.0034308433532715,0.5912500023841858,1.009821891784668,0.5831249952316284
902,0.9812798500061035,0.6156250238418579,1.0085760354995728,0.5849999785423279
903,1.0083118677139282,0.5837500095367432,1.0187689065933228,0.5806249976158142
904,1.003450870513916,0.5899999737739563,1.0080169439315796,0.5806249976158142
905,0.9703460931777954,0.6025000214576721,0.9972684383392334,0.5893750190734863
906,0.9961498975753784,0.5993750095367432,1.019640326499939,0.5724999904632568
907,0.9912880659103394,0.6025000214576721,1.0011333227157593,0.5899999737739563
908,0.9648824334144592,0.6193749904632568,1.0234270095825195,0.5706250071525574
909,0.9632655382156372,0.6181250214576721,1.015485167503357,0.5768749713897705
910,0.9722654223442078,0.5943750143051147,1.0120929479599,0.5856249928474426
911,0.9965989589691162,0.5975000262260437,0.9994127154350281,0.5856249928474426
912,0.9556083679199219,0.6143749952316284,1.004469394683838,0.5874999761581421
913,0.971550703048706,0.6143749952316284,1.0147130489349365,0.5799999833106995
914,0.9970856308937073,0.6012499928474426,0.9988929033279419,0.5931249856948853
915,0.980332612991333,0.6050000190734863,1.0034555196762085,0.5881249904632568
916,0.9965375661849976,0.6018750071525574,1.0042060613632202,0.5818750262260437
917,1.0028526782989502,0.5943750143051147,1.0068042278289795,0.5756250023841858
918,0.9515741467475891,0.6268749833106995,1.0055168867111206,0.5793750286102295
919,1.0155094861984253,0.5887500047683716,1.0225831270217896,0.5737500190734863
920,0.96844083070755,0.6156250238418579,0.9985523223876953,0.5918750166893005
921,0.9901753067970276,0.5918750166893005,0.9799831509590149,0.5962499976158142
922,1.0030698776245117,0.5962499976158142,0.9995166659355164,0.5924999713897705
923,0.9725447297096252,0.6000000238418579,0.9905226230621338,0.5899999737739563
924,0.9807883501052856,0.596875011920929,1.0163655281066895,0.5774999856948853
925,0.9722763299942017,0.6181250214576721,1.0120397806167603,0.5806249976158142
926,1.0040019750595093,0.6006249785423279,0.9898712038993835,0.5931249856948853
927,0.9798642992973328,0.6075000166893005,1.0137302875518799,0.5799999833106995
928,0.9897972345352173,0.6000000238418579,1.0039352178573608,0.5824999809265137
929,0.9892403483390808,0.5887500047683716,1.009231448173523,0.5737500190734863
930,0.9943925738334656,0.596875011920929,1.0137617588043213,0.5743749737739563
931,0.9927602410316467,0.6025000214576721,1.0096806287765503,0.5799999833106995
932,0.9958270192146301,0.6031249761581421,1.011054515838623,0.5831249952316284
933,1.0325405597686768,0.5774999856948853,1.0063068866729736,0.5818750262260437
934,0.9863806962966919,0.6081249713897705,1.0202656984329224,0.5743749737739563
935,1.0189108848571777,0.5837500095367432,1.0056954622268677,0.5924999713897705
936,0.9967023730278015,0.5918750166893005,1.013262152671814,0.5799999833106995
937,0.9989059567451477,0.6000000238418579,1.012076735496521,0.5799999833106995
938,1.0030219554901123,0.5950000286102295,1.0200629234313965,0.574999988079071
939,1.0058289766311646,0.5975000262260437,1.0121395587921143,0.5793750286102295
940,0.9976785182952881,0.5893750190734863,1.0250130891799927,0.5687500238418579
941,0.9962485432624817,0.5943750143051147,1.0203654766082764,0.5743749737739563
942,0.9753783345222473,0.6006249785423279,1.0155044794082642,0.5849999785423279
943,0.9825174808502197,0.6112499833106995,1.035634160041809,0.5687500238418579
944,0.9992506504058838,0.5862500071525574,0.9903995990753174,0.5862500071525574
945,0.9583985805511475,0.6200000047683716,1.0057846307754517,0.5874999761581421
946,1.009812593460083,0.5987499952316284,1.0033587217330933,0.5918750166893005
947,0.9861953258514404,0.6031249761581421,1.0171353816986084,0.5799999833106995
948,0.9980836510658264,0.6012499928474426,1.0290875434875488,0.5674999952316284
949,0.99074387550354,0.606249988079071,1.0210797786712646,0.5774999856948853
950,0.9832587242126465,0.6068750023841858,0.9869853258132935,0.5987499952316284
951,1.0017480850219727,0.5918750166893005,1.0268571376800537,0.5631250143051147
952,0.9755601286888123,0.6175000071525574,0.9976114630699158,0.5962499976158142
953,0.9963387250900269,0.6043750047683716,1.0061991214752197,0.5793750286102295
954,1.0051450729370117,0.5943750143051147,0.9938738346099854,0.5881249904632568
955,0.9945904016494751,0.5862500071525574,1.004925012588501,0.5831249952316284
956,0.9781469702720642,0.6050000190734863,1.0035605430603027,0.5843750238418579
957,0.9830752015113831,0.612500011920929,1.0147970914840698,0.5768749713897705
958,1.001343011856079,0.5856249928474426,0.998329758644104,0.5868750214576721
959,1.0101161003112793,0.6000000238418579,1.0156155824661255,0.5793750286102295
960,0.9821944236755371,0.606249988079071,1.007818579673767,0.5824999809265137
961,0.9894264936447144,0.5993750095367432,1.0050017833709717,0.5843750238418579
962,0.993685245513916,0.6025000214576721,0.987069845199585,0.5893750190734863
963,0.9772692322731018,0.6231250166893005,1.008316159248352,0.5868750214576721
964,0.9993746876716614,0.5950000286102295,1.0115195512771606,0.581250011920929
965,0.9768614172935486,0.6081249713897705,1.0062663555145264,0.5899999737739563
966,0.979755163192749,0.596875011920929,0.988297700881958,0.596875011920929
967,1.0066386461257935,0.5956249833106995,1.0107223987579346,0.5806249976158142
968,1.0160900354385376,0.5918750166893005,1.006270408630371,0.5837500095367432
969,0.9795148372650146,0.6031249761581421,1.007238507270813,0.5856249928474426
970,0.9687965512275696,0.628125011920929,1.0084058046340942,0.5831249952316284
971,0.9935254454612732,0.6050000190734863,1.020575761795044,0.5762500166893005
972,0.9754786491394043,0.6043750047683716,0.9997969269752502,0.5818750262260437
973,0.9659730792045593,0.6143749952316284,1.001680850982666,0.5893750190734863
974,1.0008219480514526,0.6018750071525574,1.0017106533050537,0.5793750286102295
975,0.9833554029464722,0.6087499856948853,1.0105713605880737,0.5824999809265137
976,0.9749488234519958,0.6156250238418579,0.9844698905944824,0.5856249928474426
977,0.9971035718917847,0.6018750071525574,1.0091583728790283,0.5887500047683716
978,0.9698917269706726,0.6100000143051147,1.0166441202163696,0.5924999713897705
979,0.9949953556060791,0.5912500023841858,0.9887531399726868,0.5912500023841858
980,0.9806838035583496,0.6175000071525574,1.0154165029525757,0.5724999904632568
981,0.9597142934799194,0.6225000023841858,1.0007984638214111,0.5899999737739563
982,0.9819628000259399,0.6037499904632568,1.0129456520080566,0.5818750262260437
983,1.006149172782898,0.5862500071525574,1.0196064710617065,0.574999988079071
984,0.9992715716362,0.5987499952316284,1.0178523063659668,0.5799999833106995
985,0.9898919463157654,0.5950000286102295,0.994284987449646,0.5874999761581421
986,1.002246379852295,0.5981249809265137,1.0023223161697388,0.5912500023841858
987,0.993513822555542,0.6068750023841858,1.0071039199829102,0.5806249976158142
988,0.9961574673652649,0.5981249809265137,1.0006728172302246,0.5924999713897705
989,0.9873976111412048,0.6112499833106995,1.027642846107483,0.5699999928474426
990,0.9861397743225098,0.6056249737739563,1.0137478113174438,0.5831249952316284
991,0.9791699051856995,0.6100000143051147,1.0151798725128174,0.5762500166893005
992,0.9830217957496643,0.5975000262260437,0.9941536784172058,0.590624988079071
993,0.9670319557189941,0.596875011920929,1.0214403867721558,0.5706250071525574
994,0.9871762990951538,0.596875011920929,1.0229713916778564,0.5799999833106995
995,1.0025255680084229,0.5843750238418579,1.0242964029312134,0.5768749713897705
996,1.0050333738327026,0.6006249785423279,1.0253413915634155,0.5718749761581421
997,1.0081391334533691,0.6000000238418579,0.9930859208106995,0.5912500023841858
998,1.0081878900527954,0.5843750238418579,1.0019444227218628,0.5768749713897705
999,0.9744317531585693,0.606249988079071,1.0149556398391724,0.5831249952316284
